Time (s),WE(1).Current (A)
0.38926899901719,-7.1075439453125E-05
0.46926899881521,-1.9921875E-05
0.549268998613229,-1.13555908203125E-05
0.629268998411249,-8.2122802734375E-06
0.709268998209268,-6.549072265625E-06
0.789268998007287,-5.5877685546875E-06
0.869268997805307,-4.93469238281249E-06
0.949268997603326,-4.4708251953125E-06
1.02926899740135,-4.1168212890625E-06
1.10926899719937,-3.85131835937499E-06
1.18926899699738,-3.643798828125E-06
1.2692689967954,-3.4759521484375E-06
1.34926899659342,-3.326416015625E-06
1.42926899639144,-3.2073974609375E-06
1.50926899618946,-3.0975341796875E-06
1.58926899598748,-3.01208496093749E-06
1.6692689957855,-2.9266357421875E-06
1.74926899558352,-2.8656005859375E-06
1.82926899538154,-2.789306640625E-06
1.90926899517956,-2.74047851562501E-06
1.98926899497758,-2.6885986328125E-06
2.0692689947756,-2.655029296875E-06
2.14926899457362,-2.60009765624999E-06
2.22926899437164,-2.56958007812499E-06
2.30926899416966,-2.52685546875001E-06
2.38926899396768,-2.484130859375E-06
2.4692689937657,-2.471923828125E-06
2.54926899356371,-2.4383544921875E-06
2.62926899336173,-2.42004394531251E-06
2.70926899315975,-2.38647460937499E-06
2.78926899295777,-2.35595703124999E-06
2.86926899275579,-2.3529052734375E-06
2.94926899255381,-2.3040771484375E-06
3.02926899235183,-2.2857666015625E-06
3.10926899214985,-2.26745605468751E-06
3.18926899194787,-2.2613525390625E-06
3.26926899174589,-2.24609375E-06
3.34926899154391,-2.227783203125E-06
3.42926899134193,-2.2125244140625E-06
3.50926899113995,-2.2125244140625E-06
3.58926899093797,-2.1942138671875E-06
3.66926899073599,-2.178955078125E-06
3.74926899053401,-2.154541015625E-06
3.82926899033203,-2.14233398437499E-06
3.90926899013004,-2.13623046875E-06
3.98926898992806,-2.13012695312501E-06
4.06926898972608,-2.1331787109375E-06
4.1492689895241,-2.105712890625E-06
4.22926898932212,-2.1087646484375E-06
4.30926898912014,-2.093505859375E-06
4.38926898891816,-2.08129882812499E-06
4.46926898871618,-2.0751953125E-06
4.5492689885142,-2.0721435546875E-06
4.62926898831222,-2.0477294921875E-06
4.70926898811024,-2.056884765625E-06
4.78926898790826,-2.0477294921875E-06
4.86926898770628,-2.0416259765625E-06
4.9492689875043,-2.03552246093749E-06
5.02926898730232,-2.02026367187499E-06
5.10926898710034,-2.00805664062501E-06
5.18926898689836,-1.995849609375E-06
5.26926898669637,-2.00500488281249E-06
5.34926898649439,-1.98974609374999E-06
5.42926898629241,-2.001953125E-06
5.50926898609043,-1.98974609374999E-06
5.58926898588845,-1.97448730468749E-06
5.66926898568647,-1.971435546875E-06
5.74926898548449,-1.971435546875E-06
5.82926898528251,-1.96228027343751E-06
5.90926898508053,-1.96228027343751E-06
5.98926898487855,-1.9378662109375E-06
6.06926898467657,-1.94396972656249E-06
6.14926898447459,-1.934814453125E-06
6.22926898427261,-1.9256591796875E-06
6.30926898407063,-1.9378662109375E-06
6.38926898386865,-1.922607421875E-06
6.46926898366667,-1.91650390625001E-06
6.54926898346469,-1.91345214843749E-06
6.6292689832627,-1.9073486328125E-06
6.70926898306072,-1.9073486328125E-06
6.78926898285874,-1.9073486328125E-06
6.86926898265676,-1.8951416015625E-06
6.94926898245478,-1.89208984375E-06
7.0292689822528,-1.8768310546875E-06
7.10926898205082,-1.8798828125E-06
7.18926898184884,-1.873779296875E-06
7.26926898164686,-1.8890380859375E-06
7.34926898144488,-1.86767578124999E-06
7.4292689812429,-1.88293457031249E-06
7.50926898104092,-1.86767578124999E-06
7.58926898083894,-1.861572265625E-06
7.66926898063696,-1.87072753906251E-06
7.74926898043498,-1.861572265625E-06
7.829268980233,-1.8646240234375E-06
7.90926898003102,-1.85546875000001E-06
7.98926897982903,-1.85241699218749E-06
8.06926897962705,-1.84326171875E-06
8.14926897942507,-1.8463134765625E-06
8.22926897922309,-1.82495117187501E-06
8.30926897902111,-1.8310546875E-06
8.38926897881913,-1.83715820312499E-06
8.46926897861715,-1.84020996093751E-06
8.54926897841517,-1.82495117187501E-06
8.62926897821319,-1.8341064453125E-06
8.70926897801121,-1.82189941406249E-06
8.78926897780923,-1.8280029296875E-06
8.86926897760725,-1.8035888671875E-06
8.94926897740527,-1.82495117187501E-06
9.02926897720329,-1.82189941406249E-06
9.10926897700131,-1.81884765625E-06
9.18926897679933,-1.800537109375E-06
9.26926897659735,-1.80664062499999E-06
9.34926897639536,-1.80664062499999E-06
9.42926897619338,-1.80664062499999E-06
9.5092689759914,-1.800537109375E-06
9.58926897578942,-1.80664062499999E-06
9.66926897558744,-1.79138183593749E-06
9.74926897538546,-1.7974853515625E-06
9.82926897518348,-1.800537109375E-06
9.9092689749815,-1.788330078125E-06
9.98926897477952,-1.788330078125E-06
10.0692689745775,-1.7730712890625E-06
10.1492689743756,-1.79443359375001E-06
10.2292689741736,-1.77917480468751E-06
10.3092689739716,-1.7730712890625E-06
10.3892689737696,-1.7730712890625E-06
10.4692689735676,-1.7822265625E-06
10.5492689733657,-1.7669677734375E-06
10.6292689731637,-1.7669677734375E-06
10.7092689729617,-1.76086425781249E-06
10.7892689727597,-1.7578125E-06
10.8692689725577,-1.77001953125E-06
10.9492689723558,-1.7547607421875E-06
11.0292689721538,-1.76391601562501E-06
11.1092689719518,-1.76086425781249E-06
11.1892689717498,-1.751708984375E-06
11.2692689715478,-1.76086425781249E-06
11.3492689713459,-1.751708984375E-06
11.4292689711439,-1.74865722656251E-06
11.5092689709419,-1.74865722656251E-06
11.5892689707399,-1.74560546874999E-06
11.6692689705379,-1.7425537109375E-06
11.7492689703359,-1.74865722656251E-06
11.829268970134,-1.739501953125E-06
11.909268969932,-1.74865722656251E-06
11.98926896973,-1.74865722656251E-06
12.069268969528,-1.73339843750001E-06
12.149268969326,-1.727294921875E-06
12.2292689691241,-1.7425537109375E-06
12.3092689689221,-1.7242431640625E-06
12.3892689687201,-1.7242431640625E-06
12.4692689685181,-1.7242431640625E-06
12.5492689683161,-1.73034667968749E-06
12.6292689681142,-1.73034667968749E-06
12.7092689679122,-1.72119140625E-06
12.7892689677102,-1.7242431640625E-06
12.8692689675082,-1.72119140625E-06
12.9492689673062,-1.727294921875E-06
13.0292689671043,-1.7120361328125E-06
13.1092689669023,-1.71508789062499E-06
13.1892689667003,-1.72119140625E-06
13.2692689664983,-1.7242431640625E-06
13.3492689662963,-1.70288085937501E-06
13.4292689660944,-1.7059326171875E-06
13.5092689658924,-1.708984375E-06
13.5892689656904,-1.7120361328125E-06
13.6692689654884,-1.708984375E-06
13.7492689652864,-1.70288085937501E-06
13.8292689650845,-1.7059326171875E-06
13.9092689648825,-1.69677734375E-06
13.9892689646805,-1.69677734375E-06
14.0692689644785,-1.69982910156249E-06
14.1492689642765,-1.69677734375E-06
14.2292689640745,-1.690673828125E-06
14.3092689638726,-1.69677734375E-06
14.3892689636706,-1.690673828125E-06
14.4692689634686,-1.68762207031251E-06
14.5492689632666,-1.68762207031251E-06
14.6292689630646,-1.6937255859375E-06
14.7092689628627,-1.6937255859375E-06
14.7892689626607,-1.6815185546875E-06
14.8692689624587,-1.690673828125E-06
14.9492689622567,-1.68457031249999E-06
15.0292689620547,-1.6815185546875E-06
15.1092689618528,-1.6815185546875E-06
15.1892689616508,-1.67236328125001E-06
15.2692689614488,-1.67236328125001E-06
15.3492689612468,-1.6632080078125E-06
15.4292689610448,-1.6937255859375E-06
15.5092689608429,-1.66931152343749E-06
15.5892689606409,-1.67236328125001E-06
15.6692689604389,-1.6754150390625E-06
15.7492689602369,-1.66931152343749E-06
15.8292689600349,-1.66931152343749E-06
15.909268959833,-1.66931152343749E-06
15.989268959631,-1.66015625E-06
16.069268959429,-1.66931152343749E-06
16.149268959227,-1.666259765625E-06
16.229268959025,-1.666259765625E-06
16.3092689588231,-1.6510009765625E-06
16.3892689586211,-1.66931152343749E-06
16.4692689584191,-1.66015625E-06
16.5492689582171,-1.64184570312501E-06
16.6292689580151,-1.66015625E-06
16.7092689578132,-1.666259765625E-06
16.7892689576112,-1.66015625E-06
16.8692689574092,-1.6510009765625E-06
16.9492689572072,-1.65405273437499E-06
17.0292689570052,-1.64794921875E-06
17.1092689568032,-1.6510009765625E-06
17.1892689566013,-1.65405273437499E-06
17.2692689563993,-1.6448974609375E-06
17.3492689561973,-1.65405273437499E-06
17.4292689559953,-1.65405273437499E-06
17.5092689557933,-1.6357421875E-06
17.5892689555914,-1.6448974609375E-06
17.6692689553894,-1.63879394531249E-06
17.7492689551874,-1.64794921875E-06
17.8292689549854,-1.6448974609375E-06
17.9092689547834,-1.63879394531249E-06
17.9892689545815,-1.6357421875E-06
18.0692689543795,-1.62658691406251E-06
18.1492689541775,-1.629638671875E-06
18.2292689539755,-1.63879394531249E-06
18.3092689537735,-1.62353515624999E-06
18.3892689535716,-1.6357421875E-06
18.4692689533696,-1.62658691406251E-06
18.5492689531676,-1.62353515624999E-06
18.6292689529656,-1.629638671875E-06
18.7092689527636,-1.6204833984375E-06
18.7892689525617,-1.6326904296875E-06
18.8692689523597,-1.62353515624999E-06
18.9492689521577,-1.62658691406251E-06
19.0292689519557,-1.617431640625E-06
19.1092689517537,-1.62353515624999E-06
19.1892689515518,-1.62353515624999E-06
19.2692689513498,-1.61132812500001E-06
19.3492689511478,-1.62353515624999E-06
19.4292689509458,-1.6143798828125E-06
19.5092689507438,-1.61132812500001E-06
19.5892689505419,-1.629638671875E-06
19.6692689503399,-1.6143798828125E-06
19.7492689501379,-1.617431640625E-06
19.8292689499359,-1.60827636718749E-06
19.9092689497339,-1.60827636718749E-06
19.9892689495319,-1.605224609375E-06
20.06926894933,-1.6143798828125E-06
20.149268949128,-1.61132812500001E-06
20.229268948926,-1.60827636718749E-06
20.309268948724,-1.59606933593751E-06
20.389268948522,-1.60827636718749E-06
20.4692689483201,-1.59912109375E-06
20.5492689481181,-1.6021728515625E-06
20.6292689479161,-1.6021728515625E-06
20.7092689477141,-1.6021728515625E-06
20.7892689475121,-1.5899658203125E-06
20.8692689473102,-1.5838623046875E-06
20.9492689471082,-1.6021728515625E-06
21.0292689469062,-1.59606933593751E-06
21.1092689467042,-1.6021728515625E-06
21.1892689465022,-1.6021728515625E-06
21.2692689463003,-1.5899658203125E-06
21.3492689460983,-1.59912109375E-06
21.4292689458963,-1.59301757812499E-06
21.5092689456943,-1.5869140625E-06
21.5892689454923,-1.59606933593751E-06
21.6692689452904,-1.59606933593751E-06
21.7492689450884,-1.5869140625E-06
21.8292689448864,-1.59301757812499E-06
21.9092689446844,-1.5869140625E-06
21.9892689444824,-1.5838623046875E-06
22.0692689442805,-1.5869140625E-06
22.1492689440785,-1.58081054687501E-06
22.2292689438765,-1.5899658203125E-06
22.3092689436745,-1.57470703125E-06
22.3892689434725,-1.5899658203125E-06
22.4692689432705,-1.5869140625E-06
22.5492689430686,-1.568603515625E-06
22.6292689428666,-1.5899658203125E-06
22.7092689426646,-1.56555175781251E-06
22.7892689424626,-1.57775878906249E-06
22.8692689422606,-1.56249999999999E-06
22.9492689420587,-1.57470703125E-06
23.0292689418567,-1.568603515625E-06
23.1092689416547,-1.56249999999999E-06
23.1892689414527,-1.5716552734375E-06
23.2692689412507,-1.57470703125E-06
23.3492689410488,-1.57775878906249E-06
23.4292689408468,-1.5716552734375E-06
23.5092689406448,-1.5716552734375E-06
23.5892689404428,-1.568603515625E-06
23.6692689402408,-1.57470703125E-06
23.7492689400389,-1.556396484375E-06
23.8292689398369,-1.57470703125E-06
23.9092689396349,-1.56555175781251E-06
23.9892689394329,-1.5594482421875E-06
24.0692689392309,-1.5716552734375E-06
24.149268939029,-1.56555175781251E-06
24.229268938827,-1.56555175781251E-06
24.309268938625,-1.56555175781251E-06
24.389268938423,-1.56555175781251E-06
24.469268938221,-1.568603515625E-06
24.5492689380191,-1.56249999999999E-06
24.6292689378171,-1.556396484375E-06
24.7092689376151,-1.55029296875001E-06
24.7892689374131,-1.5533447265625E-06
24.8692689372111,-1.5594482421875E-06
24.9492689370092,-1.53503417968751E-06
25.0292689368072,-1.5594482421875E-06
25.1092689366052,-1.54724121093749E-06
25.1892689364032,-1.556396484375E-06
25.2692689362012,-1.544189453125E-06
25.3492689359992,-1.544189453125E-06
25.4292689357973,-1.55029296875001E-06
25.5092689355953,-1.5533447265625E-06
25.5892689353933,-1.53503417968751E-06
25.6692689351913,-1.54724121093749E-06
25.7492689349893,-1.544189453125E-06
25.8292689347874,-1.53503417968751E-06
25.9092689345854,-1.55029296875001E-06
25.9892689343834,-1.54724121093749E-06
26.0692689341814,-1.5380859375E-06
26.1492689339794,-1.5533447265625E-06
26.2292689337775,-1.5411376953125E-06
26.3092689335755,-1.544189453125E-06
26.3892689333735,-1.544189453125E-06
26.4692689331715,-1.544189453125E-06
26.5492689329695,-1.54724121093749E-06
26.6292689327676,-1.544189453125E-06
26.7092689325656,-1.5411376953125E-06
26.7892689323636,-1.5411376953125E-06
26.8692689321616,-1.5411376953125E-06
26.9492689319596,-1.53198242187499E-06
27.0292689317577,-1.53198242187499E-06
27.1092689315557,-1.53503417968751E-06
27.1892689313537,-1.53503417968751E-06
27.2692689311517,-1.53503417968751E-06
27.3492689309497,-1.52587890625E-06
27.4292689307478,-1.53198242187499E-06
27.5092689305458,-1.5380859375E-06
27.5892689303438,-1.5228271484375E-06
27.6692689301418,-1.53198242187499E-06
27.7492689299398,-1.52587890625E-06
27.8292689297379,-1.52587890625E-06
27.9092689295359,-1.5380859375E-06
27.9892689293339,-1.5228271484375E-06
28.0692689291319,-1.5228271484375E-06
28.1492689289299,-1.53198242187499E-06
28.2292689287279,-1.5289306640625E-06
28.309268928526,-1.53198242187499E-06
28.389268928324,-1.513671875E-06
28.469268928122,-1.51977539062501E-06
28.54926892792,-1.5228271484375E-06
28.629268927718,-1.5289306640625E-06
28.7092689275161,-1.51977539062501E-06
28.7892689273141,-1.5228271484375E-06
28.8692689271121,-1.5228271484375E-06
28.9492689269101,-1.5289306640625E-06
29.0292689267081,-1.513671875E-06
29.1092689265062,-1.513671875E-06
29.1892689263042,-1.5228271484375E-06
29.2692689261022,-1.513671875E-06
29.3492689259002,-1.5106201171875E-06
29.4292689256982,-1.513671875E-06
29.5092689254963,-1.5228271484375E-06
29.5892689252943,-1.507568359375E-06
29.6692689250923,-1.51977539062501E-06
29.7492689248903,-1.513671875E-06
29.8292689246883,-1.51672363281249E-06
29.9092689244864,-1.5106201171875E-06
29.9892689242844,-1.51977539062501E-06
30.0692689240824,-1.50451660156251E-06
30.1492689238804,-1.51977539062501E-06
30.2292689236784,-1.513671875E-06
30.3092689234765,-1.495361328125E-06
30.3892689232745,-1.507568359375E-06
30.4692689230725,-1.513671875E-06
30.5492689228705,-1.4923095703125E-06
30.6292689226685,-1.513671875E-06
30.7092689224665,-1.4984130859375E-06
30.7892689222646,-1.51672363281249E-06
30.8692689220626,-1.5106201171875E-06
30.9492689218606,-1.507568359375E-06
31.0292689216586,-1.495361328125E-06
31.1092689214566,-1.51672363281249E-06
31.1892689212547,-1.513671875E-06
31.2692689210527,-1.4923095703125E-06
31.3492689208507,-1.48925781250001E-06
31.4292689206487,-1.50451660156251E-06
31.5092689204467,-1.50451660156251E-06
31.5892689202448,-1.513671875E-06
31.6692689200428,-1.495361328125E-06
31.7492689198408,-1.4984130859375E-06
31.8292689196388,-1.495361328125E-06
31.9092689194368,-1.4984130859375E-06
31.9892689192349,-1.48620605468749E-06
32.0692689190329,-1.48925781250001E-06
32.1492689188309,-1.4923095703125E-06
32.2292689186289,-1.50451660156251E-06
32.3092689184269,-1.4984130859375E-06
32.389268918225,-1.495361328125E-06
32.469268918023,-1.4923095703125E-06
32.549268917821,-1.50146484374999E-06
32.629268917619,-1.495361328125E-06
32.709268917417,-1.50146484374999E-06
32.7892689172151,-1.4984130859375E-06
32.8692689170131,-1.4923095703125E-06
32.9492689168111,-1.48620605468749E-06
33.0292689166091,-1.495361328125E-06
33.1092689164071,-1.48925781250001E-06
33.1892689162052,-1.48925781250001E-06
33.2692689160032,-1.4801025390625E-06
33.3492689158012,-1.4923095703125E-06
33.4292689155992,-1.4984130859375E-06
33.5092689153972,-1.483154296875E-06
33.5892689151952,-1.48925781250001E-06
33.6692689149933,-1.4984130859375E-06
33.7492689147913,-1.4801025390625E-06
33.8292689145893,-1.48925781250001E-06
33.9092689143873,-1.4801025390625E-06
33.9892689141853,-1.48925781250001E-06
34.0692689139834,-1.4801025390625E-06
34.1492689137814,-1.47705078125E-06
34.2292689135794,-1.48620605468749E-06
34.3092689133774,-1.483154296875E-06
34.3892689131754,-1.48925781250001E-06
34.4692689129735,-1.47399902343751E-06
34.5492689127715,-1.4801025390625E-06
34.6292689125695,-1.4801025390625E-06
34.7092689123675,-1.483154296875E-06
34.7892689121655,-1.47705078125E-06
34.8692689119636,-1.483154296875E-06
34.9492689117616,-1.47705078125E-06
35.0292689115596,-1.47399902343751E-06
35.1092689113576,-1.483154296875E-06
35.1892689111556,-1.47705078125E-06
35.2692689109537,-1.47705078125E-06
35.3492689107517,-1.4678955078125E-06
35.4292689105497,-1.47399902343751E-06
35.5092689103477,-1.4678955078125E-06
35.5892689101457,-1.4801025390625E-06
35.6692689099438,-1.47399902343751E-06
35.7492689097418,-1.47705078125E-06
35.8292689095398,-1.483154296875E-06
35.9092689093378,-1.46484375E-06
35.9892689091358,-1.47705078125E-06
36.0692689089339,-1.47399902343751E-06
36.1492689087319,-1.4801025390625E-06
36.2292689085299,-1.4801025390625E-06
36.3092689083279,-1.47705078125E-06
36.3892689081259,-1.46484375E-06
36.4692689079239,-1.47094726562499E-06
36.549268907722,-1.4678955078125E-06
36.62926890752,-1.4801025390625E-06
36.709268907318,-1.46484375E-06
36.789268907116,-1.47094726562499E-06
36.869268906914,-1.47094726562499E-06
36.9492689067121,-1.47094726562499E-06
37.0292689065101,-1.45568847656249E-06
37.1092689063081,-1.47399902343751E-06
37.1892689061061,-1.46484375E-06
37.2692689059041,-1.4617919921875E-06
37.3492689057022,-1.46484375E-06
37.4292689055002,-1.4617919921875E-06
37.5092689052982,-1.46484375E-06
37.5892689050962,-1.46484375E-06
37.6692689048942,-1.45568847656249E-06
37.7492689046923,-1.4678955078125E-06
37.8292689044903,-1.47399902343751E-06
37.9092689042883,-1.45874023437501E-06
37.9892689040863,-1.47094726562499E-06
38.0692689038843,-1.4678955078125E-06
38.1492689036824,-1.45568847656249E-06
38.2292689034804,-1.47094726562499E-06
38.3092689032784,-1.45263671875E-06
38.3892689030764,-1.4678955078125E-06
38.4692689028744,-1.46484375E-06
38.5492689026725,-1.45874023437501E-06
38.6292689024705,-1.47094726562499E-06
38.7092689022685,-1.45874023437501E-06
38.7892689020665,-1.4495849609375E-06
38.8692689018645,-1.45568847656249E-06
38.9492689016625,-1.4373779296875E-06
39.0292689014606,-1.45263671875E-06
39.1092689012586,-1.45874023437501E-06
39.1892689010566,-1.45874023437501E-06
39.2692689008546,-1.4678955078125E-06
39.3492689006526,-1.4617919921875E-06
39.4292689004507,-1.46484375E-06
39.5092689002487,-1.45263671875E-06
39.5892689000467,-1.4495849609375E-06
39.6692688998447,-1.4617919921875E-06
39.7492688996427,-1.45568847656249E-06
39.8292688994408,-1.446533203125E-06
39.9092688992388,-1.4617919921875E-06
39.9892688990368,-1.45263671875E-06
40.0692688988348,-1.45874023437501E-06
40.1492688986328,-1.4495849609375E-06
40.2292688984309,-1.46484375E-06
40.3092688982289,-1.44348144531251E-06
40.3892688980269,-1.4617919921875E-06
40.4692688978249,-1.45263671875E-06
40.5492688976229,-1.4495849609375E-06
40.629268897421,-1.4495849609375E-06
40.709268897219,-1.45568847656249E-06
40.789268897017,-1.446533203125E-06
40.869268896815,-1.4495849609375E-06
40.949268896613,-1.45874023437501E-06
41.0292688964111,-1.446533203125E-06
41.1092688962091,-1.4617919921875E-06
41.1892688960071,-1.446533203125E-06
41.2692688958051,-1.446533203125E-06
41.3492688956031,-1.45263671875E-06
41.4292688954012,-1.45874023437501E-06
41.5092688951992,-1.446533203125E-06
41.5892688949972,-1.4617919921875E-06
41.6692688947952,-1.446533203125E-06
41.7492688945932,-1.44348144531251E-06
41.8292688943912,-1.446533203125E-06
41.9092688941893,-1.4495849609375E-06
41.9892688939873,-1.4312744140625E-06
42.0692688937853,-1.44348144531251E-06
42.1492688935833,-1.434326171875E-06
42.2292688933813,-1.44348144531251E-06
42.3092688931794,-1.4373779296875E-06
42.3892688929774,-1.446533203125E-06
42.4692688927754,-1.44042968749999E-06
42.5492688925734,-1.44042968749999E-06
42.6292688923714,-1.44348144531251E-06
42.7092688921695,-1.446533203125E-06
42.7892688919675,-1.44348144531251E-06
42.8692688917655,-1.44348144531251E-06
42.9492688915635,-1.4312744140625E-06
43.0292688913615,-1.4373779296875E-06
43.1092688911596,-1.44348144531251E-06
43.1892688909576,-1.4373779296875E-06
43.2692688907556,-1.434326171875E-06
43.3492688905536,-1.44348144531251E-06
43.4292688903516,-1.4373779296875E-06
43.5092688901497,-1.446533203125E-06
43.5892688899477,-1.44042968749999E-06
43.6692688897457,-1.42822265625001E-06
43.7492688895437,-1.44042968749999E-06
43.8292688893417,-1.4373779296875E-06
43.9092688891398,-1.44042968749999E-06
43.9892688889378,-1.44348144531251E-06
44.0692688887358,-1.4373779296875E-06
44.1492688885338,-1.44348144531251E-06
44.2292688883318,-1.44042968749999E-06
44.3092688881298,-1.42517089843749E-06
44.3892688879279,-1.4312744140625E-06
44.4692688877259,-1.42517089843749E-06
44.5492688875239,-1.42822265625001E-06
44.6292688873219,-1.434326171875E-06
44.7092688871199,-1.4373779296875E-06
44.789268886918,-1.42822265625001E-06
44.869268886716,-1.44042968749999E-06
44.949268886514,-1.4312744140625E-06
45.029268886312,-1.42822265625001E-06
45.10926888611,-1.434326171875E-06
45.1892688859081,-1.4312744140625E-06
45.2692688857061,-1.4312744140625E-06
45.3492688855041,-1.434326171875E-06
45.4292688853021,-1.434326171875E-06
45.5092688851001,-1.4495849609375E-06
45.5892688848982,-1.434326171875E-06
45.6692688846962,-1.416015625E-06
45.7492688844942,-1.42517089843749E-06
45.8292688842922,-1.42822265625001E-06
45.9092688840902,-1.4190673828125E-06
45.9892688838883,-1.42822265625001E-06
46.0692688836863,-1.42822265625001E-06
46.1492688834843,-1.42822265625001E-06
46.2292688832823,-1.42517089843749E-06
46.3092688830803,-1.42517089843749E-06
46.3892688828784,-1.4312744140625E-06
46.4692688826764,-1.42517089843749E-06
46.5492688824744,-1.434326171875E-06
46.6292688822724,-1.422119140625E-06
46.7092688820704,-1.416015625E-06
46.7892688818685,-1.42517089843749E-06
46.8692688816665,-1.422119140625E-06
46.9492688814645,-1.42517089843749E-06
47.0292688812625,-1.42517089843749E-06
47.1092688810605,-1.422119140625E-06
47.1892688808585,-1.36718750000001E-06
47.2692688806566,-1.47399902343751E-06
47.3492688804546,-1.4190673828125E-06
47.4292688802526,-1.513671875E-06
47.5092688800506,-1.5594482421875E-06
47.5892688798486,-1.56249999999999E-06
47.6692688796467,-1.556396484375E-06
47.7492688794447,-1.5716552734375E-06
47.8292688792427,-1.5838623046875E-06
47.9092688790407,-1.57470703125E-06
47.9892688788387,-1.5716552734375E-06
48.0692688786368,-1.5869140625E-06
48.1492688784348,-1.5899658203125E-06
48.2292688782328,-1.57775878906249E-06
48.3092688780308,-1.57775878906249E-06
48.3892688778288,-1.5838623046875E-06
48.4692688776269,-1.57470703125E-06
48.5492688774249,-1.5899658203125E-06
48.6292688772229,-1.57775878906249E-06
48.7092688770209,-1.58081054687501E-06
48.7892688768189,-1.5869140625E-06
48.869268876617,-1.5716552734375E-06
48.949268876415,-1.58081054687501E-06
49.029268876213,-1.58081054687501E-06
49.109268876011,-1.5869140625E-06
49.189268875809,-1.59912109375E-06
49.2692688756071,-1.5716552734375E-06
49.3492688754051,-1.5869140625E-06
49.4292688752031,-1.59606933593751E-06
49.5092688750011,-1.57470703125E-06
49.5892688747991,-1.59606933593751E-06
49.6692688745972,-1.59912109375E-06
49.7492688743952,-1.5838623046875E-06
49.8292688741932,-1.5838623046875E-06
49.9092688739912,-1.57775878906249E-06
49.9892688737892,-1.5899658203125E-06
50.0692688735872,-1.5869140625E-06
50.1492688733853,-1.59606933593751E-06
50.2292688731833,-1.5899658203125E-06
50.3092688729813,-1.59301757812499E-06
50.3892688727793,-1.5899658203125E-06
50.4692688725773,-1.59606933593751E-06
50.5492688723754,-1.5869140625E-06
50.6292688721734,-1.5899658203125E-06
50.7092688719714,-1.59301757812499E-06
50.7892688717694,-1.5899658203125E-06
50.8692688715674,-1.5899658203125E-06
50.9492688713655,-1.5869140625E-06
51.0292688711635,-1.5838623046875E-06
51.1092688709615,-1.5869140625E-06
51.1892688707595,-1.59606933593751E-06
51.2692688705575,-1.59606933593751E-06
51.3492688703556,-1.5838623046875E-06
51.4292688701536,-1.5899658203125E-06
51.5092688699516,-1.57775878906249E-06
51.5892688697496,-1.58081054687501E-06
51.6692688695476,-1.5899658203125E-06
51.7492688693457,-1.5869140625E-06
51.8292688691437,-1.5838623046875E-06
51.9092688689417,-1.6021728515625E-06
51.9892688687397,-1.5838623046875E-06
52.0692688685377,-1.5838623046875E-06
52.1492688683358,-1.5869140625E-06
52.2292688681338,-1.5838623046875E-06
52.3092688679318,-1.5899658203125E-06
52.3892688677298,-1.59606933593751E-06
52.4692688675278,-1.5869140625E-06
52.5492688673258,-1.59301757812499E-06
52.6292688671239,-1.5899658203125E-06
52.7092688669219,-1.59912109375E-06
52.7892688667199,-1.59301757812499E-06
52.8692688665179,-1.5899658203125E-06
52.9492688663159,-1.5899658203125E-06
53.029268866114,-1.61132812500001E-06
53.109268865912,-1.5869140625E-06
53.18926886571,-1.59606933593751E-06
53.269268865508,-1.59301757812499E-06
53.349268865306,-1.5838623046875E-06
53.4292688651041,-1.5838623046875E-06
53.5092688649021,-1.5899658203125E-06
53.5892688647001,-1.5899658203125E-06
53.6692688644981,-1.59606933593751E-06
53.7492688642961,-1.5899658203125E-06
53.8292688640942,-1.5838623046875E-06
53.9092688638922,-1.57775878906249E-06
53.9892688636902,-1.59912109375E-06
54.0692688634882,-1.5899658203125E-06
54.1492688632862,-1.59606933593751E-06
54.2292688630843,-1.5899658203125E-06
54.3092688628823,-1.5838623046875E-06
54.3892688626803,-1.59301757812499E-06
54.4692688624783,-1.59301757812499E-06
54.5492688622763,-1.5869140625E-06
54.6292688620744,-1.5899658203125E-06
54.7092688618724,-1.605224609375E-06
54.7892688616704,-1.5869140625E-06
54.8692688614684,-1.59912109375E-06
54.9492688612664,-1.59301757812499E-06
55.0292688610645,-1.59301757812499E-06
55.1092688608625,-1.5869140625E-06
55.1892688606605,-1.58081054687501E-06
55.2692688604585,-1.58081054687501E-06
55.3492688602565,-1.59301757812499E-06
55.4292688600545,-1.59301757812499E-06
55.5092688598526,-1.59606933593751E-06
55.5892688596506,-1.59301757812499E-06
55.6692688594486,-1.59301757812499E-06
55.7492688592466,-1.59912109375E-06
55.8292688590446,-1.5869140625E-06
55.9092688588427,-1.59301757812499E-06
55.9892688586407,-1.59606933593751E-06
56.0692688584387,-1.5838623046875E-06
56.1492688582367,-1.59606933593751E-06
56.2292688580347,-1.59606933593751E-06
56.3092688578328,-1.6021728515625E-06
56.3892688576308,-1.6021728515625E-06
56.4692688574288,-1.605224609375E-06
56.5492688572268,-1.5716552734375E-06
56.6292688570248,-1.59606933593751E-06
56.7092688568229,-1.5899658203125E-06
56.7892688566209,-1.58081054687501E-06
56.8692688564189,-1.5899658203125E-06
56.9492688562169,-1.59301757812499E-06
57.0292688560149,-1.5869140625E-06
57.109268855813,-1.5869140625E-06
57.189268855611,-1.5838623046875E-06
57.269268855409,-1.5838623046875E-06
57.349268855207,-1.5716552734375E-06
57.429268855005,-1.605224609375E-06
57.5092688548031,-1.59301757812499E-06
57.5892688546011,-1.57470703125E-06
57.6692688543991,-1.44042968749999E-06
57.7492688541971,-1.85546875000001E-06
57.8292688539951,-1.9256591796875E-06
57.9092688537932,-1.8280029296875E-06
57.9892688535912,-1.800537109375E-06
58.0692688533892,-1.7852783203125E-06
58.1492688531872,-1.76391601562501E-06
58.2292688529852,-1.751708984375E-06
58.3092688527832,-1.751708984375E-06
58.3892688525813,-1.7547607421875E-06
58.4692688523793,-1.74560546874999E-06
58.5492688521773,-1.7547607421875E-06
58.6292688519753,-1.74865722656251E-06
58.7092688517733,-1.76086425781249E-06
58.7892688515714,-1.7547607421875E-06
58.8692688513694,-1.751708984375E-06
58.9492688511674,-1.751708984375E-06
59.0292688509654,-1.76086425781249E-06
59.1092688507634,-1.76391601562501E-06
59.1892688505615,-1.7547607421875E-06
59.2692688503595,-1.76086425781249E-06
59.3492688501575,-1.751708984375E-06
59.4292688499555,-1.76086425781249E-06
59.5092688497535,-1.7578125E-06
59.5892688495516,-1.7578125E-06
59.6692688493496,-1.751708984375E-06
59.7492688491476,-1.7547607421875E-06
59.8292688489456,-1.7578125E-06
59.9092688487436,-1.7547607421875E-06
59.9892688485417,-1.751708984375E-06
60.0692688483397,-1.7547607421875E-06
60.1492688481377,-1.74560546874999E-06
60.2292688479357,-1.76086425781249E-06
60.3092688477337,-1.7669677734375E-06
60.3892688475318,-1.751708984375E-06
60.4692688473298,-1.76391601562501E-06
60.5492688471278,-1.7669677734375E-06
60.6292688469258,-1.76086425781249E-06
60.7092688467238,-1.74865722656251E-06
60.7892688465218,-1.76086425781249E-06
60.8692688463199,-1.76086425781249E-06
60.9492688461179,-1.77001953125E-06
61.0292688459159,-1.77001953125E-06
61.1092688457139,-1.751708984375E-06
61.1892688455119,-1.7547607421875E-06
61.26926884531,-1.7730712890625E-06
61.349268845108,-1.7547607421875E-06
61.429268844906,-1.7547607421875E-06
61.509268844704,-1.77001953125E-06
61.589268844502,-1.7578125E-06
61.6692688443001,-1.77001953125E-06
61.7492688440981,-1.76391601562501E-06
61.8292688438961,-1.7547607421875E-06
61.9092688436941,-1.7730712890625E-06
61.9892688434921,-1.77612304687499E-06
62.0692688432902,-1.7669677734375E-06
62.1492688430882,-1.7578125E-06
62.2292688428862,-1.77001953125E-06
62.3092688426842,-1.7578125E-06
62.3892688424822,-1.7578125E-06
62.4692688422803,-1.7578125E-06
62.5492688420783,-1.7547607421875E-06
62.6292688418763,-1.76391601562501E-06
62.7092688416743,-1.77001953125E-06
62.7892688414723,-1.7822265625E-06
62.8692688412704,-1.7730712890625E-06
62.9492688410684,-1.77001953125E-06
63.0292688408664,-1.76391601562501E-06
63.1092688406644,-1.7669677734375E-06
63.1892688404624,-1.76391601562501E-06
63.2692688402605,-1.7730712890625E-06
63.3492688400585,-1.77001953125E-06
63.4292688398565,-1.7578125E-06
63.5092688396545,-1.76391601562501E-06
63.5892688394525,-1.77612304687499E-06
63.6692688392505,-1.77001953125E-06
63.7492688390486,-1.7669677734375E-06
63.8292688388466,-1.7669677734375E-06
63.9092688386446,-1.76086425781249E-06
63.9892688384426,-1.7669677734375E-06
64.0692688382406,-1.76391601562501E-06
64.1492688380387,-1.77001953125E-06
64.2292688378367,-1.77001953125E-06
64.3092688376347,-1.76391601562501E-06
64.3892688374327,-1.7669677734375E-06
64.4692688372307,-1.7578125E-06
64.5492688370288,-1.7730712890625E-06
64.6292688368268,-1.76391601562501E-06
64.7092688366248,-1.76391601562501E-06
64.7892688364228,-1.77612304687499E-06
64.8692688362208,-1.7578125E-06
64.9492688360189,-1.76086425781249E-06
65.0292688358169,-1.77001953125E-06
65.1092688356149,-1.7669677734375E-06
65.1892688354129,-1.77001953125E-06
65.2692688352109,-1.76391601562501E-06
65.349268835009,-1.7669677734375E-06
65.429268834807,-1.77001953125E-06
65.509268834605,-1.77001953125E-06
65.589268834403,-1.77917480468751E-06
65.669268834201,-1.77001953125E-06
65.7492688339991,-1.77612304687499E-06
65.8292688337971,-1.77612304687499E-06
65.9092688335951,-1.76391601562501E-06
65.9892688333931,-1.7730712890625E-06
66.0692688331911,-1.7578125E-06
66.1492688329892,-1.77001953125E-06
66.2292688327872,-1.77917480468751E-06
66.3092688325852,-1.77001953125E-06
66.3892688323832,-1.76086425781249E-06
66.4692688321812,-1.7669677734375E-06
66.5492688319792,-1.77001953125E-06
66.6292688317773,-1.7730712890625E-06
66.7092688315753,-1.77917480468751E-06
66.7892688313733,-1.751708984375E-06
66.8692688311713,-1.67236328125001E-06
66.9492688309693,-1.85241699218749E-06
67.0292688307674,-1.88598632812501E-06
67.1092688305654,-1.7974853515625E-06
67.1892688303634,-1.739501953125E-06
67.2692688301614,-1.910400390625E-06
67.3492688299594,-1.910400390625E-06
67.4292688297575,-1.9073486328125E-06
67.5092688295555,-1.94702148437501E-06
67.5892688293535,-1.9500732421875E-06
67.6692688291515,-1.91345214843749E-06
67.7492688289495,-1.93176269531251E-06
67.8292688287476,-1.9195556640625E-06
67.9092688285456,-1.934814453125E-06
67.9892688283436,-1.93176269531251E-06
68.0692688281416,-1.91345214843749E-06
68.1492688279396,-1.93176269531251E-06
68.2292688277377,-1.93176269531251E-06
68.3092688275357,-1.92871093749999E-06
68.3892688273337,-1.92871093749999E-06
68.4692688271317,-1.9256591796875E-06
68.5492688269297,-1.93176269531251E-06
68.6292688267278,-1.934814453125E-06
68.7092688265258,-1.9378662109375E-06
68.7892688263238,-1.92871093749999E-06
68.8692688261218,-1.9378662109375E-06
68.9492688259198,-1.94091796875E-06
69.0292688257178,-1.934814453125E-06
69.1092688255159,-1.94091796875E-06
69.1892688253139,-1.92871093749999E-06
69.2692688251119,-1.94702148437501E-06
69.3492688249099,-1.94091796875E-06
69.4292688247079,-1.93176269531251E-06
69.509268824506,-1.94702148437501E-06
69.589268824304,-1.9378662109375E-06
69.669268824102,-1.92871093749999E-06
69.7492688239,-1.934814453125E-06
69.829268823698,-1.9256591796875E-06
69.9092688234961,-1.9500732421875E-06
69.9892688232941,-1.94702148437501E-06
70.0692688230921,-1.93176269531251E-06
70.1492688228901,-1.9378662109375E-06
70.2292688226881,-1.9378662109375E-06
70.3092688224862,-1.93176269531251E-06
70.3892688222842,-1.9378662109375E-06
70.4692688220822,-1.934814453125E-06
70.5492688218802,-1.93176269531251E-06
70.6292688216782,-1.9378662109375E-06
70.7092688214763,-1.953125E-06
70.7892688212743,-1.934814453125E-06
70.8692688210723,-1.94702148437501E-06
70.9492688208703,-1.9500732421875E-06
71.0292688206683,-1.94396972656249E-06
71.1092688204664,-1.94091796875E-06
71.1892688202644,-1.9378662109375E-06
71.2692688200624,-1.94702148437501E-06
71.3492688198604,-1.94702148437501E-06
71.4292688196584,-1.934814453125E-06
71.5092688194565,-1.94396972656249E-06
71.5892688192545,-1.9378662109375E-06
71.6692688190525,-1.953125E-06
71.7492688188505,-1.94702148437501E-06
71.8292688186485,-1.9378662109375E-06
71.9092688184465,-1.94091796875E-06
71.9892688182446,-1.93176269531251E-06
72.0692688180426,-1.94702148437501E-06
72.1492688178406,-1.94396972656249E-06
72.2292688176386,-1.94091796875E-06
72.3092688174366,-1.94396972656249E-06
72.3892688172347,-1.934814453125E-06
72.4692688170327,-1.94396972656249E-06
72.5492688168307,-1.94091796875E-06
72.6292688166287,-1.94091796875E-06
72.7092688164267,-1.94396972656249E-06
72.7892688162248,-1.953125E-06
72.8692688160228,-1.9500732421875E-06
72.9492688158208,-1.94702148437501E-06
73.0292688156188,-1.94091796875E-06
73.1092688154168,-1.9500732421875E-06
73.1892688152149,-1.94702148437501E-06
73.2692688150129,-1.94702148437501E-06
73.3492688148109,-1.94396972656249E-06
73.4292688146089,-1.94702148437501E-06
73.5092688144069,-1.94396972656249E-06
73.589268814205,-1.94702148437501E-06
73.669268814003,-1.934814453125E-06
73.749268813801,-1.95922851562499E-06
73.829268813599,-1.94702148437501E-06
73.909268813397,-1.94396972656249E-06
73.9892688131951,-1.94702148437501E-06
74.0692688129931,-1.94396972656249E-06
74.1492688127911,-1.9561767578125E-06
74.2292688125891,-1.94396972656249E-06
74.3092688123871,-1.94396972656249E-06
74.3892688121852,-1.953125E-06
74.4692688119832,-1.94702148437501E-06
74.5492688117812,-1.953125E-06
74.6292688115792,-1.96228027343751E-06
74.7092688113772,-1.953125E-06
74.7892688111752,-1.94396972656249E-06
74.8692688109733,-1.9500732421875E-06
74.9492688107713,-1.96228027343751E-06
75.0292688105693,-1.94396972656249E-06
75.1092688103673,-1.94702148437501E-06
75.1892688101653,-1.94702148437501E-06
75.2692688099634,-1.9378662109375E-06
75.3492688097614,-1.96228027343751E-06
75.4292688095594,-1.9500732421875E-06
75.5092688093574,-1.9500732421875E-06
75.5892688091554,-1.95922851562499E-06
75.6692688089535,-1.94702148437501E-06
75.7492688087515,-1.9378662109375E-06
75.8292688085495,-1.94702148437501E-06
75.9092688083475,-1.96533203125E-06
75.9892688081455,-1.94702148437501E-06
76.0692688079436,-1.953125E-06
76.1492688077416,-1.9500732421875E-06
76.2292688075396,-1.94702148437501E-06
76.3092688073376,-1.9561767578125E-06
76.3892688071356,-1.9500732421875E-06
76.4692688069337,-1.9500732421875E-06
76.5492688067317,-1.953125E-06
76.6292688065297,-1.94396972656249E-06
76.7092688063277,-1.94702148437501E-06
76.7892688061257,-1.953125E-06
76.8692688059238,-1.953125E-06
76.9492688057218,-1.9500732421875E-06
77.0292688055198,-1.953125E-06
77.1092688053178,-1.94702148437501E-06
77.1892688051158,-1.93176269531251E-06
77.2692688049138,-1.9866943359375E-06
77.3492688047119,-2.02331542968751E-06
77.4292688045099,-2.09655761718749E-06
77.5092688043079,-2.117919921875E-06
77.5892688041059,-2.0782470703125E-06
77.6692688039039,-2.1087646484375E-06
77.749268803702,-2.13623046875E-06
77.8292688035,-2.11181640624999E-06
77.909268803298,-2.1026611328125E-06
77.989268803096,-2.117919921875E-06
78.069268802894,-2.1240234375E-06
78.1492688026921,-2.12707519531249E-06
78.2292688024901,-2.1240234375E-06
78.3092688022881,-2.1240234375E-06
78.3892688020861,-2.1209716796875E-06
78.4692688018841,-2.117919921875E-06
78.5492688016822,-2.11486816406251E-06
78.6292688014802,-2.117919921875E-06
78.7092688012782,-2.1209716796875E-06
78.7892688010762,-2.11486816406251E-06
78.8692688008742,-2.1209716796875E-06
78.9492688006723,-2.1240234375E-06
79.0292688004703,-2.1087646484375E-06
79.1092688002683,-2.1087646484375E-06
79.1892688000663,-2.12707519531249E-06
79.2692687998643,-2.1209716796875E-06
79.3492687996624,-2.11486816406251E-06
79.4292687994604,-2.1240234375E-06
79.5092687992584,-2.11181640624999E-06
79.5892687990564,-2.1240234375E-06
79.6692687988544,-2.1209716796875E-06
79.7492687986525,-2.13012695312501E-06
79.8292687984505,-2.1240234375E-06
79.9092687982485,-2.117919921875E-06
79.9892687980465,-2.11181640624999E-06
80.0692687978445,-2.1240234375E-06
80.1492687976425,-2.11486816406251E-06
80.2292687974406,-2.1087646484375E-06
80.3092687972386,-2.11486816406251E-06
80.3892687970366,-2.12707519531249E-06
80.4692687968346,-2.1209716796875E-06
80.5492687966326,-2.12707519531249E-06
80.6292687964307,-2.1331787109375E-06
80.7092687962287,-2.117919921875E-06
80.7892687960267,-2.11181640624999E-06
80.8692687958247,-2.12707519531249E-06
80.9492687956227,-2.12707519531249E-06
81.0292687954208,-2.1240234375E-06
81.1092687952188,-2.12707519531249E-06
81.1892687950168,-2.1240234375E-06
81.2692687948148,-2.13623046875E-06
81.3492687946128,-2.117919921875E-06
81.4292687944109,-2.117919921875E-06
81.5092687942089,-2.13012695312501E-06
81.5892687940069,-2.12707519531249E-06
81.6692687938049,-2.1331787109375E-06
81.7492687936029,-2.1209716796875E-06
81.829268793401,-2.1240234375E-06
81.909268793199,-2.1240234375E-06
81.989268792997,-2.1392822265625E-06
82.069268792795,-2.1240234375E-06
82.149268792593,-2.12707519531249E-06
82.2292687923911,-2.11486816406251E-06
82.3092687921891,-2.1331787109375E-06
82.3892687919871,-2.13623046875E-06
82.4692687917851,-2.1331787109375E-06
82.5492687915831,-2.12707519531249E-06
82.6292687913812,-2.1331787109375E-06
82.7092687911792,-2.13012695312501E-06
82.7892687909772,-2.117919921875E-06
82.8692687907752,-2.11486816406251E-06
82.9492687905732,-2.1392822265625E-06
83.0292687903712,-2.1240234375E-06
83.1092687901693,-2.117919921875E-06
83.1892687899673,-2.13623046875E-06
83.2692687897653,-2.1331787109375E-06
83.3492687895633,-2.1392822265625E-06
83.4292687893613,-2.12707519531249E-06
83.5092687891594,-2.1209716796875E-06
83.5892687889574,-2.1240234375E-06
83.6692687887554,-2.13012695312501E-06
83.7492687885534,-2.1392822265625E-06
83.8292687883514,-2.1392822265625E-06
83.9092687881495,-2.1331787109375E-06
83.9892687879475,-2.13623046875E-06
84.0692687877455,-2.13012695312501E-06
84.1492687875435,-2.13623046875E-06
84.2292687873415,-2.13623046875E-06
84.3092687871396,-2.1240234375E-06
84.3892687869376,-2.12707519531249E-06
84.4692687867356,-2.1392822265625E-06
84.5492687865336,-2.1392822265625E-06
84.6292687863316,-2.1392822265625E-06
84.7092687861297,-2.14538574218751E-06
84.7892687859277,-2.13012695312501E-06
84.8692687857257,-2.12707519531249E-06
84.9492687855237,-2.14538574218751E-06
85.0292687853217,-2.13623046875E-06
85.1092687851198,-2.13623046875E-06
85.1892687849178,-2.1331787109375E-06
85.2692687847158,-2.12707519531249E-06
85.3492687845138,-2.1240234375E-06
85.4292687843118,-2.14233398437499E-06
85.5092687841098,-2.1331787109375E-06
85.5892687839079,-2.1331787109375E-06
85.6692687837059,-2.14233398437499E-06
85.7492687835039,-2.14538574218751E-06
85.8292687833019,-2.1331787109375E-06
85.9092687830999,-2.1392822265625E-06
85.989268782898,-2.1392822265625E-06
86.069268782696,-2.1392822265625E-06
86.149268782494,-2.1331787109375E-06
86.229268782292,-2.1392822265625E-06
86.30926878209,-2.14233398437499E-06
86.3892687818881,-2.12707519531249E-06
86.4692687816861,-2.14538574218751E-06
86.5492687814841,-2.12707519531249E-06
86.6292687812821,-2.13012695312501E-06
86.7092687810801,-2.12707519531249E-06
86.7892687808782,-2.1331787109375E-06
86.8692687806762,-2.13623046875E-06
86.9492687804742,-2.1392822265625E-06
87.0292687802722,-2.13012695312501E-06
87.1092687800702,-2.1392822265625E-06
87.1892687798683,-2.1392822265625E-06
87.2692687796663,-2.1484375E-06
87.3492687794643,-2.13623046875E-06
87.4292687792623,-2.14538574218751E-06
87.5092687790603,-2.1240234375E-06
87.5892687788584,-2.1392822265625E-06
87.6692687786564,-2.14538574218751E-06
87.7492687784544,-2.13623046875E-06
87.8292687782524,-2.13623046875E-06
87.9092687780504,-2.13012695312501E-06
87.9892687778485,-2.1392822265625E-06
88.0692687776465,-2.1331787109375E-06
88.1492687774445,-2.14538574218751E-06
88.2292687772425,-2.14233398437499E-06
88.3092687770405,-2.1484375E-06
88.3892687768385,-2.1392822265625E-06
88.4692687766366,-2.1514892578125E-06
88.5492687764346,-2.14233398437499E-06
88.6292687762326,-2.1392822265625E-06
88.7092687760306,-2.13623046875E-06
88.7892687758286,-2.12707519531249E-06
88.8692687756267,-2.14538574218751E-06
88.9492687754247,-2.13623046875E-06
89.0292687752227,-2.14233398437499E-06
89.1092687750207,-2.13623046875E-06
89.1892687748187,-2.1392822265625E-06
89.2692687746168,-2.14233398437499E-06
89.3492687744148,-2.14538574218751E-06
89.4292687742128,-2.14538574218751E-06
89.5092687740108,-2.1392822265625E-06
89.5892687738088,-2.14538574218751E-06
89.6692687736069,-2.13623046875E-06
89.7492687734049,-2.1392822265625E-06
89.8292687732029,-2.14233398437499E-06
89.9092687730009,-2.16064453125001E-06
89.9892687727989,-2.14233398437499E-06
90.069268772597,-2.14538574218751E-06
90.149268772395,-2.14538574218751E-06
90.229268772193,-2.14538574218751E-06
90.309268771991,-2.14538574218751E-06
90.389268771789,-2.1392822265625E-06
90.4692687715871,-2.1514892578125E-06
90.5492687713851,-2.1331787109375E-06
90.6292687711831,-2.1484375E-06
90.7092687709811,-2.1392822265625E-06
90.7892687707791,-2.13623046875E-06
90.8692687705772,-2.15759277343749E-06
90.9492687703752,-2.1392822265625E-06
91.0292687701732,-2.15759277343749E-06
91.1092687699712,-2.0477294921875E-06
91.1892687697692,-2.2308349609375E-06
91.2692687695672,-2.24914550781249E-06
91.3492687693653,-2.276611328125E-06
91.4292687691633,-2.2735595703125E-06
91.5092687689613,-2.27966308593749E-06
91.5892687687593,-2.27966308593749E-06
91.6692687685573,-2.30712890625E-06
91.7492687683554,-2.29797363281251E-06
91.8292687681534,-2.30712890625E-06
91.9092687679514,-2.30712890625E-06
91.9892687677494,-2.301025390625E-06
92.0692687675474,-2.31018066406249E-06
92.1492687673455,-2.31018066406249E-06
92.2292687671435,-2.29797363281251E-06
92.3092687669415,-2.31323242187501E-06
92.3892687667395,-2.3193359375E-06
92.4692687665375,-2.31018066406249E-06
92.5492687663356,-2.301025390625E-06
92.6292687661336,-2.30712890625E-06
92.7092687659316,-2.30712890625E-06
92.7892687657296,-2.30712890625E-06
92.8692687655276,-2.301025390625E-06
92.9492687653257,-2.29797363281251E-06
93.0292687651237,-2.30712890625E-06
93.1092687649217,-2.31018066406249E-06
93.1892687647197,-2.30712890625E-06
93.2692687645177,-2.3040771484375E-06
93.3492687643158,-2.29797363281251E-06
93.4292687641138,-2.31323242187501E-06
93.5092687639118,-2.3162841796875E-06
93.5892687637098,-2.3162841796875E-06
93.6692687635078,-2.301025390625E-06
93.7492687633058,-2.31018066406249E-06
93.8292687631039,-2.31323242187501E-06
93.9092687629019,-2.3162841796875E-06
93.9892687626999,-2.29492187499999E-06
94.0692687624979,-2.30712890625E-06
94.1492687622959,-2.31323242187501E-06
94.229268762094,-2.31323242187501E-06
94.309268761892,-2.31018066406249E-06
94.38926876169,-2.30712890625E-06
94.469268761488,-2.3162841796875E-06
94.549268761286,-2.3040771484375E-06
94.6292687610841,-2.31323242187501E-06
94.7092687608821,-2.31018066406249E-06
94.7892687606801,-2.30712890625E-06
94.8692687604781,-2.3193359375E-06
94.9492687602761,-2.32543945312499E-06
95.0292687600742,-2.3193359375E-06
95.1092687598722,-2.31018066406249E-06
95.1892687596702,-2.3223876953125E-06
95.2692687594682,-2.3040771484375E-06
95.3492687592662,-2.32849121093751E-06
95.4292687590643,-2.31323242187501E-06
95.5092687588623,-2.3040771484375E-06
95.5892687586603,-2.31323242187501E-06
95.6692687584583,-2.32543945312499E-06
95.7492687582563,-2.31018066406249E-06
95.8292687580544,-2.31018066406249E-06
95.9092687578524,-2.3193359375E-06
95.9892687576504,-2.32849121093751E-06
96.0692687574484,-2.31018066406249E-06
96.1492687572464,-2.3162841796875E-06
96.2292687570445,-2.3193359375E-06
96.3092687568425,-2.31018066406249E-06
96.3892687566405,-2.3162841796875E-06
96.4692687564385,-2.33154296875E-06
96.5492687562365,-2.3162841796875E-06
96.6292687560345,-2.31323242187501E-06
96.7092687558326,-2.32849121093751E-06
96.7892687556306,-2.3162841796875E-06
96.8692687554286,-2.3223876953125E-06
96.9492687552266,-2.3223876953125E-06
97.0292687550246,-2.31323242187501E-06
97.1092687548227,-2.3193359375E-06
97.1892687546207,-2.33154296875E-06
97.2692687544187,-2.3223876953125E-06
97.3492687542167,-2.3193359375E-06
97.4292687540147,-2.3223876953125E-06
97.5092687538128,-2.32543945312499E-06
97.5892687536108,-2.32849121093751E-06
97.6692687534088,-2.3223876953125E-06
97.7492687532068,-2.32543945312499E-06
97.8292687530048,-2.32543945312499E-06
97.9092687528029,-2.3162841796875E-06
97.9892687526009,-2.3223876953125E-06
98.0692687523989,-2.33154296875E-06
98.1492687521969,-2.3193359375E-06
98.2292687519949,-2.3223876953125E-06
98.309268751793,-2.3162841796875E-06
98.389268751591,-2.3223876953125E-06
98.469268751389,-2.3223876953125E-06
98.549268751187,-2.3193359375E-06
98.629268750985,-2.33154296875E-06
98.7092687507831,-2.3040771484375E-06
98.7892687505811,-2.3162841796875E-06
98.8692687503791,-2.3162841796875E-06
98.9492687501771,-2.33154296875E-06
99.0292687499751,-2.32543945312499E-06
99.1092687497732,-2.3193359375E-06
99.1892687495712,-2.32543945312499E-06
99.2692687493692,-2.3223876953125E-06
99.3492687491672,-2.32849121093751E-06
99.4292687489652,-2.3162841796875E-06
99.5092687487632,-2.3193359375E-06
99.5892687485613,-2.32849121093751E-06
99.6692687483593,-2.3162841796875E-06
99.7492687481573,-2.32543945312499E-06
99.8292687479553,-2.3223876953125E-06
99.9092687477533,-2.32849121093751E-06
99.9892687475514,-2.33154296875E-06
100.069268747349,-2.3345947265625E-06
100.149268747147,-2.32543945312499E-06
100.229268746945,-2.31323242187501E-06
100.309268746743,-2.3345947265625E-06
100.389268746541,-2.3162841796875E-06
100.469268746339,-2.3193359375E-06
100.549268746137,-2.34069824218749E-06
100.629268745936,-2.3193359375E-06
100.709268745734,-2.3223876953125E-06
100.789268745532,-2.32543945312499E-06
100.86926874533,-2.30712890625E-06
100.949268745128,-2.32849121093751E-06
101.029268744926,-2.32849121093751E-06
101.109268744724,-2.337646484375E-06
101.189268744522,-2.33154296875E-06
101.26926874432,-2.32543945312499E-06
101.349268744118,-2.32849121093751E-06
101.429268743916,-2.3193359375E-06
101.509268743714,-2.3223876953125E-06
101.589268743512,-2.3193359375E-06
101.66926874331,-2.3345947265625E-06
101.749268743108,-2.33154296875E-06
101.829268742906,-2.32543945312499E-06
101.909268742704,-2.3193359375E-06
101.989268742502,-2.32849121093751E-06
102.0692687423,-2.32849121093751E-06
102.149268742098,-2.32543945312499E-06
102.229268741896,-2.3193359375E-06
102.309268741694,-2.32543945312499E-06
102.389268741492,-2.3345947265625E-06
102.46926874129,-2.3223876953125E-06
102.549268741088,-2.3162841796875E-06
102.629268740886,-2.3345947265625E-06
102.709268740684,-2.337646484375E-06
102.789268740482,-2.3345947265625E-06
102.86926874028,-2.33154296875E-06
102.949268740078,-2.32543945312499E-06
103.029268739876,-2.32543945312499E-06
103.109268739674,-2.3223876953125E-06
103.189268739472,-2.32849121093751E-06
103.26926873927,-2.33154296875E-06
103.349268739068,-2.32543945312499E-06
103.429268738866,-2.33154296875E-06
103.509268738664,-2.3193359375E-06
103.589268738462,-2.33154296875E-06
103.66926873826,-2.3345947265625E-06
103.749268738058,-2.32543945312499E-06
103.829268737856,-2.32543945312499E-06
103.909268737654,-2.32543945312499E-06
103.989268737452,-2.32543945312499E-06
104.06926873725,-2.3345947265625E-06
104.149268737048,-2.337646484375E-06
104.229268736846,-2.3193359375E-06
104.309268736644,-2.337646484375E-06
104.389268736442,-2.32543945312499E-06
104.46926873624,-2.34069824218749E-06
104.549268736038,-2.32849121093751E-06
104.629268735836,-2.3223876953125E-06
104.709268735635,-2.32849121093751E-06
104.789268735433,-2.34069824218749E-06
104.869268735231,-2.33154296875E-06
104.949268735029,-2.3223876953125E-06
105.029268734827,-2.34069824218749E-06
105.109268734625,-2.3345947265625E-06
105.189268734423,-2.33154296875E-06
105.269268734221,-2.33154296875E-06
105.349268734019,-2.34069824218749E-06
105.429268733817,-2.32543945312499E-06
105.509268733615,-2.32849121093751E-06
105.589268733413,-2.3223876953125E-06
105.669268733211,-2.32849121093751E-06
105.749268733009,-2.32849121093751E-06
105.829268732807,-2.3345947265625E-06
105.909268732605,-2.3223876953125E-06
105.989268732403,-2.3468017578125E-06
106.069268732201,-2.3345947265625E-06
106.149268731999,-2.33154296875E-06
106.229268731797,-2.32849121093751E-06
106.309268731595,-2.3345947265625E-06
106.389268731393,-2.3345947265625E-06
106.469268731191,-2.3345947265625E-06
106.549268730989,-2.33154296875E-06
106.629268730787,-2.34069824218749E-06
106.709268730585,-2.3468017578125E-06
106.789268730383,-2.3345947265625E-06
106.869268730181,-2.32543945312499E-06
106.949268729979,-2.33154296875E-06
107.029268729777,-2.33154296875E-06
107.109268729575,-2.32849121093751E-06
107.189268729373,-2.3223876953125E-06
107.269268729171,-2.33154296875E-06
107.349268728969,-2.33154296875E-06
107.429268728767,-2.337646484375E-06
107.509268728565,-2.3345947265625E-06
107.589268728363,-2.33154296875E-06
107.669268728161,-2.3345947265625E-06
107.749268727959,-2.337646484375E-06
107.829268727757,-2.337646484375E-06
107.909268727555,-2.34069824218749E-06
107.989268727353,-2.3345947265625E-06
108.069268727151,-2.337646484375E-06
108.149268726949,-2.32543945312499E-06
108.229268726747,-2.3193359375E-06
108.309268726545,-2.3345947265625E-06
108.389268726343,-2.34375000000001E-06
108.469268726141,-2.3345947265625E-06
108.549268725939,-2.337646484375E-06
108.629268725737,-2.337646484375E-06
108.709268725535,-2.32849121093751E-06
108.789268725333,-2.337646484375E-06
108.869268725132,-2.337646484375E-06
108.94926872493,-2.34069824218749E-06
109.029268724728,-2.3345947265625E-06
109.109268724526,-2.337646484375E-06
109.189268724324,-2.3468017578125E-06
109.269268724122,-2.33154296875E-06
109.34926872392,-2.34375000000001E-06
109.429268723718,-2.32849121093751E-06
109.509268723516,-2.3345947265625E-06
109.589268723314,-2.3345947265625E-06
109.669268723112,-2.337646484375E-06
109.74926872291,-2.337646484375E-06
109.829268722708,-2.34069824218749E-06
109.909268722506,-2.3468017578125E-06
109.989268722304,-2.3468017578125E-06
110.069268722102,-2.3345947265625E-06
110.1492687219,-2.337646484375E-06
110.229268721698,-2.3468017578125E-06
110.309268721496,-2.33154296875E-06
110.389268721294,-2.32543945312499E-06
110.469268721092,-2.349853515625E-06
110.54926872089,-2.34069824218749E-06
110.629268720688,-2.34375000000001E-06
110.709268720486,-2.34375000000001E-06
110.789268720284,-2.3345947265625E-06
110.869268720082,-2.25219726562501E-06
110.94926871988,-2.337646484375E-06
111.029268719678,-2.3681640625E-06
111.109268719476,-2.34375000000001E-06
111.189268719274,-2.337646484375E-06
111.269268719072,-2.337646484375E-06
111.34926871887,-2.349853515625E-06
111.429268718668,-2.34375000000001E-06
111.509268718466,-2.33154296875E-06
111.589268718264,-2.34375000000001E-06
111.669268718062,-2.3468017578125E-06
111.74926871786,-2.3345947265625E-06
111.829268717658,-2.34069824218749E-06
111.909268717456,-2.34375000000001E-06
111.989268717254,-2.3468017578125E-06
112.069268717052,-2.337646484375E-06
112.14926871685,-2.337646484375E-06
112.229268716648,-2.337646484375E-06
112.309268716446,-2.3345947265625E-06
112.389268716244,-2.337646484375E-06
112.469268716042,-2.34069824218749E-06
112.54926871584,-2.3468017578125E-06
112.629268715638,-2.3345947265625E-06
112.709268715436,-2.33154296875E-06
112.789268715234,-2.32849121093751E-06
112.869268715032,-2.337646484375E-06
112.949268714831,-2.32849121093751E-06
113.029268714629,-2.3345947265625E-06
113.109268714427,-2.3468017578125E-06
113.189268714225,-2.37121582031249E-06
113.269268714023,-2.32543945312499E-06
113.349268713821,-2.349853515625E-06
113.429268713619,-2.09960937500001E-06
113.509268713417,-2.31323242187501E-06
113.589268713215,-2.26440429687499E-06
113.669268713013,-2.3651123046875E-06
113.749268712811,-2.392578125E-06
113.829268712609,-2.3162841796875E-06
113.909268712407,-2.3529052734375E-06
113.989268712205,-2.33154296875E-06
114.069268712003,-2.32543945312499E-06
114.149268711801,-2.3345947265625E-06
114.229268711599,-2.38037109375E-06
114.309268711397,-2.30712890625E-06
114.389268711195,-2.3193359375E-06
114.469268710993,-2.31018066406249E-06
114.549268710791,-2.31323242187501E-06
114.629268710589,-2.29492187499999E-06
114.709268710387,-2.3040771484375E-06
114.789268710185,-2.29492187499999E-06
114.869268709983,-2.288818359375E-06
114.949268709781,-2.29492187499999E-06
115.029268709579,-2.276611328125E-06
115.109268709377,-2.26745605468751E-06
115.189268709175,-2.27966308593749E-06
115.269268708973,-2.26745605468751E-06
115.349268708771,-2.2552490234375E-06
115.429268708569,-2.24609375E-06
115.509268708367,-2.24914550781249E-06
115.589268708165,-2.239990234375E-06
115.669268707963,-2.239990234375E-06
115.749268707761,-2.2247314453125E-06
115.829268707559,-2.2247314453125E-06
115.909268707357,-2.215576171875E-06
115.989268707155,-2.21862792968749E-06
116.069268706953,-2.21862792968749E-06
116.149268706751,-2.20642089843751E-06
116.229268706549,-2.1942138671875E-06
116.309268706347,-2.20947265625E-06
116.389268706145,-2.1820068359375E-06
116.469268705943,-2.197265625E-06
116.549268705741,-2.19116210937501E-06
116.629268705539,-2.18505859375E-06
116.709268705337,-2.1636962890625E-06
116.789268705135,-2.197265625E-06
116.869268704933,-2.1636962890625E-06
116.949268704731,-2.17285156249999E-06
117.029268704529,-2.17285156249999E-06
117.109268704328,-2.14538574218751E-06
117.189268704126,-2.14538574218751E-06
117.269268703924,-2.15759277343749E-06
117.349268703722,-2.1514892578125E-06
117.42926870352,-2.13623046875E-06
117.509268703318,-2.154541015625E-06
117.589268703116,-2.11486816406251E-06
117.669268702914,-2.1484375E-06
117.749268702712,-2.117919921875E-06
117.82926870251,-2.11486816406251E-06
117.909268702308,-2.1209716796875E-06
117.989268702106,-2.105712890625E-06
118.069268701904,-2.093505859375E-06
118.149268701702,-2.08740234375E-06
118.2292687015,-2.09655761718749E-06
118.309268701298,-2.09655761718749E-06
118.389268701096,-2.093505859375E-06
118.469268700894,-2.0782470703125E-06
118.549268700692,-2.08129882812499E-06
118.62926870049,-2.0782470703125E-06
118.709268700288,-2.0751953125E-06
118.789268700086,-2.08740234375E-06
118.869268699884,-2.0599365234375E-06
118.949268699682,-2.05078124999999E-06
119.02926869948,-2.0477294921875E-06
119.109268699278,-2.0477294921875E-06
119.189268699076,-2.05078124999999E-06
119.269268698874,-2.0477294921875E-06
119.349268698672,-2.05078124999999E-06
119.42926869847,-2.03857421875001E-06
119.509268698268,-2.0111083984375E-06
119.589268698066,-2.032470703125E-06
119.669268697864,-2.01416015625E-06
119.749268697662,-2.02026367187499E-06
119.82926869746,-2.01416015625E-06
119.909268697258,-2.00500488281249E-06
119.989268697056,-1.995849609375E-06
120.069268696854,-1.9989013671875E-06
120.149268696652,-1.9866943359375E-06
120.22926869645,-1.995849609375E-06
120.309268696248,-1.9805908203125E-06
120.389268696046,-1.971435546875E-06
120.469268695844,-1.99279785156251E-06
120.549268695642,-1.97448730468749E-06
120.62926869544,-1.9683837890625E-06
120.709268695238,-1.97753906250001E-06
120.789268695036,-1.97753906250001E-06
120.869268694834,-1.953125E-06
120.949268694632,-1.953125E-06
121.02926869443,-1.94702148437501E-06
121.109268694228,-1.953125E-06
121.189268694027,-1.9256591796875E-06
121.269268693825,-1.92871093749999E-06
121.349268693623,-1.92871093749999E-06
121.429268693421,-1.94396972656249E-06
121.509268693219,-1.9378662109375E-06
121.589268693017,-1.93176269531251E-06
121.669268692815,-1.94091796875E-06
121.749268692613,-1.90124511718751E-06
121.829268692411,-1.910400390625E-06
121.909268692209,-1.91650390625001E-06
121.989268692007,-1.922607421875E-06
122.069268691805,-1.89819335937499E-06
122.149268691603,-1.90124511718751E-06
122.229268691401,-1.89208984375E-06
122.309268691199,-1.90124511718751E-06
122.389268690997,-1.89208984375E-06
122.469268690795,-1.8890380859375E-06
122.549268690593,-1.8798828125E-06
122.629268690391,-1.88598632812501E-06
122.709268690189,-1.88598632812501E-06
122.789268689987,-1.8798828125E-06
122.869268689785,-1.87072753906251E-06
122.949268689583,-1.86767578124999E-06
123.029268689381,-1.86767578124999E-06
123.109268689179,-1.849365234375E-06
123.189268688977,-1.85546875000001E-06
123.269268688775,-1.84326171875E-06
123.349268688573,-1.8463134765625E-06
123.429268688371,-1.84326171875E-06
123.509268688169,-1.8280029296875E-06
123.589268687967,-1.85546875000001E-06
123.669268687765,-1.8310546875E-06
123.749268687563,-1.8157958984375E-06
123.829268687361,-1.8341064453125E-06
123.909268687159,-1.84020996093751E-06
123.989268686957,-1.8157958984375E-06
124.069268686755,-1.8157958984375E-06
124.149268686553,-1.81884765625E-06
124.229268686351,-1.80969238281251E-06
124.309268686149,-1.8341064453125E-06
124.389268685947,-1.800537109375E-06
124.469268685745,-1.8035888671875E-06
124.549268685543,-1.79443359375001E-06
124.629268685341,-1.788330078125E-06
124.709268685139,-1.7852783203125E-06
124.789268684937,-1.77917480468751E-06
124.869268684735,-1.79138183593749E-06
124.949268684533,-1.7730712890625E-06
125.029268684331,-1.800537109375E-06
125.109268684129,-1.77001953125E-06
125.189268683927,-1.7974853515625E-06
125.269268683725,-1.77001953125E-06
125.349268683524,-1.7822265625E-06
125.429268683322,-1.76391601562501E-06
125.50926868312,-1.7669677734375E-06
125.589268682918,-1.7578125E-06
125.669268682716,-1.7547607421875E-06
125.749268682514,-1.7547607421875E-06
125.829268682312,-1.74865722656251E-06
125.90926868211,-1.7425537109375E-06
125.989268681908,-1.739501953125E-06
126.069268681706,-1.739501953125E-06
126.149268681504,-1.7425537109375E-06
126.229268681302,-1.74865722656251E-06
126.3092686811,-1.7364501953125E-06
126.389268680898,-1.7242431640625E-06
126.469268680696,-1.727294921875E-06
126.549268680494,-1.72119140625E-06
126.629268680292,-1.7242431640625E-06
126.70926868009,-1.727294921875E-06
126.789268679888,-1.7242431640625E-06
126.869268679686,-1.69982910156249E-06
126.949268679484,-1.708984375E-06
127.029268679282,-1.71813964843751E-06
127.10926867908,-1.7059326171875E-06
127.189268678878,-1.68762207031251E-06
127.269268678676,-1.70288085937501E-06
127.349268678474,-1.6937255859375E-06
127.429268678272,-1.7059326171875E-06
127.50926867807,-1.70288085937501E-06
127.589268677868,-1.68457031249999E-06
127.669268677666,-1.70288085937501E-06
127.749268677464,-1.68457031249999E-06
127.829268677262,-1.66931152343749E-06
127.90926867706,-1.678466796875E-06
127.989268676858,-1.68457031249999E-06
128.069268676656,-1.678466796875E-06
128.149268676454,-1.678466796875E-06
128.229268676252,-1.6754150390625E-06
128.30926867605,-1.65405273437499E-06
128.389268675848,-1.66015625E-06
128.469268675646,-1.6754150390625E-06
128.549268675444,-1.666259765625E-06
128.629268675242,-1.65710449218751E-06
128.70926867504,-1.65710449218751E-06
128.789268674838,-1.66015625E-06
128.869268674636,-1.6632080078125E-06
128.949268674434,-1.65405273437499E-06
129.029268674232,-1.64184570312501E-06
129.10926867403,-1.6326904296875E-06
129.189268673828,-1.6357421875E-06
129.269268673626,-1.6357421875E-06
129.349268673424,-1.6357421875E-06
129.429268673223,-1.6448974609375E-06
129.509268673021,-1.629638671875E-06
129.589268672819,-1.63879394531249E-06
129.669268672617,-1.6357421875E-06
129.749268672415,-1.6204833984375E-06
129.829268672213,-1.6326904296875E-06
129.909268672011,-1.6448974609375E-06
129.989268671809,-1.62658691406251E-06
130.069268671607,-1.62353515624999E-06
130.149268671405,-1.62353515624999E-06
130.229268671203,-1.6143798828125E-06
130.309268671001,-1.61132812500001E-06
130.389268670799,-1.6143798828125E-06
130.469268670597,-1.59606933593751E-06
130.549268670395,-1.617431640625E-06
130.629268670193,-1.60827636718749E-06
130.709268669991,-1.617431640625E-06
130.789268669789,-1.6021728515625E-06
130.869268669587,-1.59912109375E-06
130.949268669385,-1.61132812500001E-06
131.029268669183,-1.59606933593751E-06
131.109268668981,-1.59912109375E-06
131.189268668779,-1.5899658203125E-06
131.269268668577,-1.5869140625E-06
131.349268668375,-1.58081054687501E-06
131.429268668173,-1.5899658203125E-06
131.509268667971,-1.5899658203125E-06
131.589268667769,-1.58081054687501E-06
131.669268667567,-1.5899658203125E-06
131.749268667365,-1.58081054687501E-06
131.829268667163,-1.5716552734375E-06
131.909268666961,-1.57775878906249E-06
131.989268666759,-1.5716552734375E-06
132.069268666557,-1.5838623046875E-06
132.149268666355,-1.568603515625E-06
132.229268666153,-1.57775878906249E-06
132.309268665951,-1.56555175781251E-06
132.389268665749,-1.568603515625E-06
132.469268665547,-1.56555175781251E-06
132.549268665345,-1.56555175781251E-06
132.629268665143,-1.54724121093749E-06
132.709268664941,-1.55029296875001E-06
132.789268664739,-1.57470703125E-06
132.869268664537,-1.55029296875001E-06
132.949268664335,-1.568603515625E-06
133.029268664133,-1.5594482421875E-06
133.109268663931,-1.5533447265625E-06
133.189268663729,-1.5533447265625E-06
133.269268663527,-1.54724121093749E-06
133.349268663325,-1.55029296875001E-06
133.429268663123,-1.53503417968751E-06
133.509268662921,-1.5533447265625E-06
133.58926866272,-1.55029296875001E-06
133.669268662518,-1.56555175781251E-06
133.749268662316,-1.5411376953125E-06
133.829268662114,-1.5380859375E-06
133.909268661912,-1.55029296875001E-06
133.98926866171,-1.5380859375E-06
134.069268661508,-1.5411376953125E-06
134.149268661306,-1.55029296875001E-06
134.229268661104,-1.52587890625E-06
134.309268660902,-1.53503417968751E-06
134.3892686607,-1.53503417968751E-06
134.469268660498,-1.5289306640625E-06
134.549268660296,-1.51977539062501E-06
134.629268660094,-1.53198242187499E-06
134.709268659892,-1.51977539062501E-06
134.78926865969,-1.513671875E-06
134.869268659488,-1.513671875E-06
134.949268659286,-1.53198242187499E-06
135.029268659084,-1.51977539062501E-06
135.109268658882,-1.5228271484375E-06
135.18926865868,-1.513671875E-06
135.269268658478,-1.51672363281249E-06
135.349268658276,-1.507568359375E-06
135.429268658074,-1.52587890625E-06
135.509268657872,-1.4984130859375E-06
135.58926865767,-1.507568359375E-06
135.669268657468,-1.50146484374999E-06
135.749268657266,-1.51672363281249E-06
135.829268657064,-1.51672363281249E-06
135.909268656862,-1.50146484374999E-06
135.98926865666,-1.4984130859375E-06
136.069268656458,-1.50451660156251E-06
136.149268656256,-1.48620605468749E-06
136.229268656054,-1.507568359375E-06
136.309268655852,-1.50451660156251E-06
136.38926865565,-1.483154296875E-06
136.469268655448,-1.50451660156251E-06
136.549268655246,-1.4984130859375E-06
136.629268655044,-1.50146484374999E-06
136.709268654842,-1.4923095703125E-06
136.78926865464,-1.4984130859375E-06
136.869268654438,-1.48620605468749E-06
136.949268654236,-1.4923095703125E-06
137.029268654034,-1.4923095703125E-06
137.109268653832,-1.495361328125E-06
137.18926865363,-1.48925781250001E-06
137.269268653428,-1.48620605468749E-06
137.349268653226,-1.4923095703125E-06
137.429268653024,-1.4923095703125E-06
137.509268652822,-1.48925781250001E-06
137.58926865262,-1.4923095703125E-06
137.669268652419,-1.483154296875E-06
137.749268652217,-1.483154296875E-06
137.829268652015,-1.47399902343751E-06
137.909268651813,-1.495361328125E-06
137.989268651611,-1.48925781250001E-06
138.069268651409,-1.4617919921875E-06
138.149268651207,-1.47705078125E-06
138.229268651005,-1.4678955078125E-06
138.309268650803,-1.47094726562499E-06
138.389268650601,-1.4678955078125E-06
138.469268650399,-1.4923095703125E-06
138.549268650197,-1.4801025390625E-06
138.629268649995,-1.47705078125E-06
138.709268649793,-1.483154296875E-06
138.789268649591,-1.45874023437501E-06
138.869268649389,-1.46484375E-06
138.949268649187,-1.45874023437501E-06
139.029268648985,-1.45874023437501E-06
139.109268648783,-1.47094726562499E-06
139.189268648581,-1.47399902343751E-06
139.269268648379,-1.45568847656249E-06
139.349268648177,-1.46484375E-06
139.429268647975,-1.45568847656249E-06
139.509268647773,-1.4617919921875E-06
139.589268647571,-1.47094726562499E-06
139.669268647369,-1.4678955078125E-06
139.749268647167,-1.4495849609375E-06
139.829268646965,-1.4617919921875E-06
139.909268646763,-1.4373779296875E-06
139.989268646561,-1.45874023437501E-06
140.069268646359,-1.45874023437501E-06
140.149268646157,-1.44348144531251E-06
140.229268645955,-1.44042968749999E-06
140.309268645753,-1.446533203125E-06
140.389268645551,-1.45874023437501E-06
140.469268645349,-1.44348144531251E-06
140.549268645147,-1.44348144531251E-06
140.629268644945,-1.45263671875E-06
140.709268644743,-1.4495849609375E-06
140.789268644541,-1.44348144531251E-06
140.869268644339,-1.45568847656249E-06
140.949268644137,-1.446533203125E-06
141.029268643935,-1.44042968749999E-06
141.109268643733,-1.4495849609375E-06
141.189268643531,-1.4373779296875E-06
141.269268643329,-1.4373779296875E-06
141.349268643127,-1.446533203125E-06
141.429268642925,-1.4312744140625E-06
141.509268642723,-1.4617919921875E-06
141.589268642521,-1.4373779296875E-06
141.669268642319,-1.44042968749999E-06
141.749268642117,-1.4312744140625E-06
141.829268641916,-1.434326171875E-06
141.909268641714,-1.446533203125E-06
141.989268641512,-1.42517089843749E-06
142.06926864131,-1.434326171875E-06
142.149268641108,-1.44042968749999E-06
142.229268640906,-1.44042968749999E-06
142.309268640704,-1.42822265625001E-06
142.389268640502,-1.4312744140625E-06
142.4692686403,-1.42822265625001E-06
142.549268640098,-1.44042968749999E-06
142.629268639896,-1.44042968749999E-06
142.709268639694,-1.42822265625001E-06
142.789268639492,-1.42822265625001E-06
142.86926863929,-1.416015625E-06
142.949268639088,-1.4190673828125E-06
143.029268638886,-1.42517089843749E-06
143.109268638684,-1.434326171875E-06
143.189268638482,-1.4312744140625E-06
143.26926863828,-1.42517089843749E-06
143.349268638078,-1.4190673828125E-06
143.429268637876,-1.4495849609375E-06
143.509268637674,-1.416015625E-06
143.589268637472,-1.41296386718751E-06
143.66926863727,-1.434326171875E-06
143.749268637068,-1.4068603515625E-06
143.829268636866,-1.4373779296875E-06
143.909268636664,-1.4373779296875E-06
143.989268636462,-1.416015625E-06
144.06926863626,-1.434326171875E-06
144.149268636058,-1.40991210937499E-06
144.229268635856,-1.416015625E-06
144.309268635654,-1.40991210937499E-06
144.389268635452,-1.41296386718751E-06
144.46926863525,-1.422119140625E-06
144.549268635048,-1.422119140625E-06
144.629268634846,-1.4312744140625E-06
144.709268634644,-1.4190673828125E-06
144.789268634442,-1.416015625E-06
144.86926863424,-1.422119140625E-06
144.949268634038,-1.422119140625E-06
145.029268633836,-1.4312744140625E-06
145.109268633634,-1.422119140625E-06
145.189268633432,-1.40991210937499E-06
145.26926863323,-1.416015625E-06
145.349268633028,-1.422119140625E-06
145.429268632826,-1.422119140625E-06
145.509268632624,-1.416015625E-06
145.589268632422,-1.4190673828125E-06
145.66926863222,-1.4007568359375E-06
145.749268632018,-1.39770507812501E-06
145.829268631816,-1.422119140625E-06
145.909268631615,-1.4190673828125E-06
145.989268631413,-1.39465332031249E-06
146.069268631211,-1.422119140625E-06
146.149268631009,-1.4068603515625E-06
146.229268630807,-1.416015625E-06
146.309268630605,-1.41296386718751E-06
146.389268630403,-1.41296386718751E-06
146.469268630201,-1.39465332031249E-06
146.549268629999,-1.4068603515625E-06
146.629268629797,-1.40991210937499E-06
146.709268629595,-1.4007568359375E-06
146.789268629393,-1.42517089843749E-06
146.869268629191,-1.385498046875E-06
146.949268628989,-1.39770507812501E-06
147.029268628787,-1.40991210937499E-06
147.109268628585,-1.41296386718751E-06
147.189268628383,-1.40380859375E-06
147.269268628181,-1.40991210937499E-06
147.349268627979,-1.39465332031249E-06
147.429268627777,-1.39770507812501E-06
147.509268627575,-1.39770507812501E-06
147.589268627373,-1.41296386718751E-06
147.669268627171,-1.39770507812501E-06
147.749268626969,-1.40380859375E-06
147.829268626767,-1.3916015625E-06
147.909268626565,-1.3916015625E-06
147.989268626363,-1.3885498046875E-06
148.069268626161,-1.385498046875E-06
148.149268625959,-1.3916015625E-06
148.229268625757,-1.40380859375E-06
148.309268625555,-1.3885498046875E-06
148.389268625353,-1.3916015625E-06
148.469268625151,-1.4068603515625E-06
148.549268624949,-1.40380859375E-06
148.629268624747,-1.4007568359375E-06
148.709268624545,-1.3916015625E-06
148.789268624343,-1.40380859375E-06
148.869268624141,-1.3916015625E-06
148.949268623939,-1.38244628906251E-06
149.029268623737,-1.40380859375E-06
149.109268623535,-1.3916015625E-06
149.189268623333,-1.39770507812501E-06
149.269268623131,-1.40991210937499E-06
149.349268622929,-1.37939453124999E-06
149.429268622727,-1.3885498046875E-06
149.509268622525,-1.38244628906251E-06
149.589268622323,-1.39465332031249E-06
149.669268622121,-1.4068603515625E-06
149.749268621919,-1.39770507812501E-06
149.829268621717,-1.3916015625E-06
149.909268621515,-1.4068603515625E-06
149.989268621313,-1.3916015625E-06
150.069268621112,-1.38244628906251E-06
150.14926862091,-1.39770507812501E-06
150.229268620708,-1.3916015625E-06
150.309268620506,-1.39770507812501E-06
150.389268620304,-1.39465332031249E-06
150.469268620102,-1.3916015625E-06
150.5492686199,-1.3916015625E-06
150.629268619698,-1.39465332031249E-06
150.709268619496,-1.3763427734375E-06
150.789268619294,-1.38244628906251E-06
150.869268619092,-1.39770507812501E-06
150.94926861889,-1.373291015625E-06
151.029268618688,-1.4007568359375E-06
151.109268618486,-1.38244628906251E-06
151.189268618284,-1.39465332031249E-06
151.269268618082,-1.373291015625E-06
151.34926861788,-1.38244628906251E-06
151.429268617678,-1.38244628906251E-06
151.509268617476,-1.3885498046875E-06
151.589268617274,-1.37939453124999E-06
151.669268617072,-1.385498046875E-06
151.74926861687,-1.3916015625E-06
151.829268616668,-1.38244628906251E-06
151.909268616466,-1.37939453124999E-06
151.989268616264,-1.3763427734375E-06
152.069268616062,-1.37939453124999E-06
152.14926861586,-1.373291015625E-06
152.229268615658,-1.373291015625E-06
152.309268615456,-1.385498046875E-06
152.389268615254,-1.385498046875E-06
152.469268615052,-1.37939453124999E-06
152.54926861485,-1.38244628906251E-06
152.629268614648,-1.3885498046875E-06
152.709268614446,-1.373291015625E-06
152.789268614244,-1.385498046875E-06
152.869268614042,-1.385498046875E-06
152.94926861384,-1.39770507812501E-06
153.029268613638,-1.373291015625E-06
153.109268613436,-1.38244628906251E-06
153.189268613234,-1.37939453124999E-06
153.269268613032,-1.3702392578125E-06
153.34926861283,-1.3702392578125E-06
153.429268612628,-1.36718750000001E-06
153.509268612426,-1.38244628906251E-06
153.589268612224,-1.385498046875E-06
153.669268612022,-1.3916015625E-06
153.74926861182,-1.373291015625E-06
153.829268611618,-1.373291015625E-06
153.909268611416,-1.385498046875E-06
153.989268611214,-1.385498046875E-06
154.069268611012,-1.3763427734375E-06
154.149268610811,-1.36413574218749E-06
154.229268610609,-1.38244628906251E-06
154.309268610407,-1.373291015625E-06
154.389268610205,-1.36413574218749E-06
154.469268610003,-1.3763427734375E-06
154.549268609801,-1.38244628906251E-06
154.629268609599,-1.373291015625E-06
154.709268609397,-1.361083984375E-06
154.789268609195,-1.373291015625E-06
154.869268608993,-1.36718750000001E-06
154.949268608791,-1.36718750000001E-06
155.029268608589,-1.3702392578125E-06
155.109268608387,-1.38244628906251E-06
155.189268608185,-1.36413574218749E-06
155.269268607983,-1.3885498046875E-06
155.349268607781,-1.36718750000001E-06
155.429268607579,-1.3702392578125E-06
155.509268607377,-1.3885498046875E-06
155.589268607175,-1.373291015625E-06
155.669268606973,-1.37939453124999E-06
155.749268606771,-1.36718750000001E-06
155.829268606569,-1.3702392578125E-06
155.909268606367,-1.3763427734375E-06
155.989268606165,-1.38244628906251E-06
156.069268605963,-1.36413574218749E-06
156.149268605761,-1.361083984375E-06
156.229268605559,-1.3763427734375E-06
156.309268605357,-1.34887695312499E-06
156.389268605155,-1.36718750000001E-06
156.469268604953,-1.361083984375E-06
156.549268604751,-1.36718750000001E-06
156.629268604549,-1.3763427734375E-06
156.709268604347,-1.38244628906251E-06
156.789268604145,-1.35498046875E-06
156.869268603943,-1.36718750000001E-06
156.949268603741,-1.3580322265625E-06
157.029268603539,-1.3702392578125E-06
157.109268603337,-1.3702392578125E-06
157.189268603135,-1.3702392578125E-06
157.269268602933,-1.36718750000001E-06
157.349268602731,-1.35498046875E-06
157.429268602529,-1.3580322265625E-06
157.509268602327,-1.36413574218749E-06
157.589268602125,-1.361083984375E-06
157.669268601923,-1.3702392578125E-06
157.749268601721,-1.3580322265625E-06
157.829268601519,-1.3702392578125E-06
157.909268601317,-1.36718750000001E-06
157.989268601115,-1.36718750000001E-06
158.069268600913,-1.361083984375E-06
158.149268600711,-1.36413574218749E-06
158.229268600509,-1.36413574218749E-06
158.309268600308,-1.3580322265625E-06
158.389268600106,-1.361083984375E-06
158.469268599904,-1.361083984375E-06
158.549268599702,-1.36413574218749E-06
158.6292685995,-1.36413574218749E-06
158.709268599298,-1.3763427734375E-06
158.789268599096,-1.3580322265625E-06
158.869268598894,-1.35498046875E-06
158.949268598692,-1.36413574218749E-06
159.02926859849,-1.3458251953125E-06
159.109268598288,-1.35498046875E-06
159.189268598086,-1.36718750000001E-06
159.269268597884,-1.3702392578125E-06
159.349268597682,-1.361083984375E-06
159.42926859748,-1.35498046875E-06
159.509268597278,-1.361083984375E-06
159.589268597076,-1.3763427734375E-06
159.669268596874,-1.361083984375E-06
159.749268596672,-1.35498046875E-06
159.82926859647,-1.361083984375E-06
159.909268596268,-1.36413574218749E-06
159.989268596066,-1.36413574218749E-06
160.069268595864,-1.3580322265625E-06
160.149268595662,-1.3702392578125E-06
160.22926859546,-1.361083984375E-06
160.309268595258,-1.34887695312499E-06
160.389268595056,-1.36718750000001E-06
160.469268594854,-1.3580322265625E-06
160.549268594652,-1.35498046875E-06
160.62926859445,-1.36413574218749E-06
160.709268594248,-1.34887695312499E-06
160.789268594046,-1.35498046875E-06
160.869268593844,-1.361083984375E-06
160.949268593642,-1.3916015625E-06
161.02926859344,-1.35192871093751E-06
161.109268593238,-1.35192871093751E-06
161.189268593036,-1.35192871093751E-06
161.269268592834,-1.3580322265625E-06
161.349268592632,-1.36718750000001E-06
161.42926859243,-1.3580322265625E-06
161.509268592228,-1.35192871093751E-06
161.589268592026,-1.3458251953125E-06
161.669268591824,-1.373291015625E-06
161.749268591622,-1.35192871093751E-06
161.82926859142,-1.35498046875E-06
161.909268591218,-1.3580322265625E-06
161.989268591016,-1.3580322265625E-06
162.069268590814,-1.3580322265625E-06
162.149268590612,-1.3580322265625E-06
162.22926859041,-1.35498046875E-06
162.309268590208,-1.35192871093751E-06
162.389268590007,-1.35192871093751E-06
162.469268589805,-1.35498046875E-06
162.549268589603,-1.3580322265625E-06
162.629268589401,-1.35498046875E-06
162.709268589199,-1.3580322265625E-06
162.789268588997,-1.3397216796875E-06
162.869268588795,-1.3458251953125E-06
162.949268588593,-1.3458251953125E-06
163.029268588391,-1.36718750000001E-06
163.109268588189,-1.3397216796875E-06
163.189268587987,-1.35498046875E-06
163.269268587785,-1.3580322265625E-06
163.349268587583,-1.35498046875E-06
163.429268587381,-1.33666992187501E-06
163.509268587179,-1.3397216796875E-06
163.589268586977,-1.35498046875E-06
163.669268586775,-1.35192871093751E-06
163.749268586573,-1.3580322265625E-06
163.829268586371,-1.33361816406249E-06
163.909268586169,-1.3397216796875E-06
163.989268585967,-1.3580322265625E-06
164.069268585765,-1.33361816406249E-06
164.149268585563,-1.3458251953125E-06
164.229268585361,-1.3580322265625E-06
164.309268585159,-1.36413574218749E-06
164.389268584957,-1.3458251953125E-06
164.469268584755,-1.36718750000001E-06
164.549268584553,-1.3458251953125E-06
164.629268584351,-1.35192871093751E-06
164.709268584149,-1.35192871093751E-06
164.789268583947,-1.35192871093751E-06
164.869268583745,-1.361083984375E-06
164.949268583543,-1.3427734375E-06
165.029268583341,-1.34887695312499E-06
165.109268583139,-1.3427734375E-06
165.189268582937,-1.3397216796875E-06
165.269268582735,-1.35192871093751E-06
165.349268582533,-1.35498046875E-06
165.429268582331,-1.35192871093751E-06
165.509268582129,-1.3580322265625E-06
165.589268581927,-1.33361816406249E-06
165.669268581725,-1.3427734375E-06
165.749268581523,-1.35498046875E-06
165.829268581321,-1.35498046875E-06
165.909268581119,-1.35498046875E-06
165.989268580917,-1.35192871093751E-06
166.069268580715,-1.3458251953125E-06
166.149268580513,-1.3580322265625E-06
166.229268580311,-1.35498046875E-06
166.309268580109,-1.3397216796875E-06
166.389268579907,-1.34887695312499E-06
166.469268579705,-1.3397216796875E-06
166.549268579504,-1.35192871093751E-06
166.629268579302,-1.3397216796875E-06
166.7092685791,-1.33666992187501E-06
166.789268578898,-1.35498046875E-06
166.869268578696,-1.3427734375E-06
166.949268578494,-1.3397216796875E-06
167.029268578292,-1.3458251953125E-06
167.10926857809,-1.3397216796875E-06
167.189268577888,-1.3397216796875E-06
167.269268577686,-1.3458251953125E-06
167.349268577484,-1.34887695312499E-06
167.429268577282,-1.3458251953125E-06
167.50926857708,-1.33666992187501E-06
167.589268576878,-1.3458251953125E-06
167.669268576676,-1.3580322265625E-06
167.749268576474,-1.33666992187501E-06
167.829268576272,-1.3458251953125E-06
167.90926857607,-1.36718750000001E-06
167.989268575868,-1.3275146484375E-06
168.069268575666,-1.33666992187501E-06
168.149268575464,-1.35498046875E-06
168.229268575262,-1.34887695312499E-06
168.30926857506,-1.3427734375E-06
168.389268574858,-1.3427734375E-06
168.469268574656,-1.3427734375E-06
168.549268574454,-1.33666992187501E-06
168.629268574252,-1.33666992187501E-06
168.70926857405,-1.3458251953125E-06
168.789268573848,-1.35498046875E-06
168.869268573646,-1.3397216796875E-06
168.949268573444,-1.3458251953125E-06
169.029268573242,-1.3580322265625E-06
169.10926857304,-1.33666992187501E-06
169.189268572838,-1.33666992187501E-06
169.269268572636,-1.33361816406249E-06
169.349268572434,-1.3427734375E-06
169.429268572232,-1.3458251953125E-06
169.50926857203,-1.33361816406249E-06
169.589268571828,-1.324462890625E-06
169.669268571626,-1.35498046875E-06
169.749268571424,-1.324462890625E-06
169.829268571222,-1.3458251953125E-06
169.90926857102,-1.34887695312499E-06
169.989268570818,-1.3397216796875E-06
170.069268570616,-1.33666992187501E-06
170.149268570414,-1.3397216796875E-06
170.229268570212,-1.33361816406249E-06
170.30926857001,-1.33666992187501E-06
170.389268569808,-1.35498046875E-06
170.469268569606,-1.33666992187501E-06
170.549268569404,-1.34887695312499E-06
170.629268569203,-1.32141113281251E-06
170.709268569001,-1.33056640625E-06
170.789268568799,-1.3397216796875E-06
170.869268568597,-1.34887695312499E-06
170.949268568395,-1.3397216796875E-06
171.029268568193,-1.33666992187501E-06
171.109268567991,-1.33361816406249E-06
171.189268567789,-1.3397216796875E-06
171.269268567587,-1.3397216796875E-06
171.349268567385,-1.3427734375E-06
171.429268567183,-1.33666992187501E-06
171.509268566981,-1.3397216796875E-06
171.589268566779,-1.33361816406249E-06
171.669268566577,-1.33361816406249E-06
171.749268566375,-1.3397216796875E-06
171.829268566173,-1.33361816406249E-06
171.909268565971,-1.33361816406249E-06
171.989268565769,-1.3427734375E-06
172.069268565567,-1.33056640625E-06
172.149268565365,-1.33361816406249E-06
172.229268565163,-1.3458251953125E-06
172.309268564961,-1.3397216796875E-06
172.389268564759,-1.33666992187501E-06
172.469268564557,-1.3458251953125E-06
172.549268564355,-1.3427734375E-06
172.629268564153,-1.3275146484375E-06
172.709268563951,-1.34887695312499E-06
172.789268563749,-1.33361816406249E-06
172.869268563547,-1.3427734375E-06
172.949268563345,-1.33056640625E-06
173.029268563143,-1.3427734375E-06
173.109268562941,-1.33056640625E-06
173.189268562739,-1.33361816406249E-06
173.269268562537,-1.35192871093751E-06
173.349268562335,-1.33361816406249E-06
173.429268562133,-1.3397216796875E-06
173.509268561931,-1.3427734375E-06
173.589268561729,-1.3397216796875E-06
173.669268561527,-1.33361816406249E-06
173.749268561325,-1.324462890625E-06
173.829268561123,-1.33361816406249E-06
173.909268560921,-1.33361816406249E-06
173.989268560719,-1.3275146484375E-06
174.069268560517,-1.33361816406249E-06
174.149268560315,-1.3427734375E-06
174.229268560113,-1.3275146484375E-06
174.309268559911,-1.33056640625E-06
174.389268559709,-1.33056640625E-06
174.469268559507,-1.3275146484375E-06
174.549268559305,-1.33666992187501E-06
174.629268559103,-1.33056640625E-06
174.709268558901,-1.33361816406249E-06
174.7892685587,-1.34887695312499E-06
174.869268558498,-1.3275146484375E-06
174.949268558296,-1.33666992187501E-06
175.029268558094,-1.324462890625E-06
175.109268557892,-1.3397216796875E-06
175.18926855769,-1.3427734375E-06
175.269268557488,-1.33056640625E-06
175.349268557286,-1.33056640625E-06
175.429268557084,-1.324462890625E-06
175.509268556882,-1.3427734375E-06
175.58926855668,-1.3427734375E-06
175.669268556478,-1.33666992187501E-06
175.749268556276,-1.32141113281251E-06
175.829268556074,-1.31835937499999E-06
175.909268555872,-1.33361816406249E-06
175.98926855567,-1.3275146484375E-06
176.069268555468,-1.33056640625E-06
176.149268555266,-1.3275146484375E-06
176.229268555064,-1.324462890625E-06
176.309268554862,-1.33666992187501E-06
176.38926855466,-1.33361816406249E-06
176.469268554458,-1.3275146484375E-06
176.549268554256,-1.33056640625E-06
176.629268554054,-1.3397216796875E-06
176.709268553852,-1.3153076171875E-06
176.78926855365,-1.33056640625E-06
176.869268553448,-1.33666992187501E-06
176.949268553246,-1.33666992187501E-06
177.029268553044,-1.33056640625E-06
177.109268552842,-1.33056640625E-06
177.18926855264,-1.3275146484375E-06
177.269268552438,-1.33361816406249E-06
177.349268552236,-1.3275146484375E-06
177.429268552034,-1.3458251953125E-06
177.509268551832,-1.3397216796875E-06
177.58926855163,-1.3427734375E-06
177.669268551428,-1.3153076171875E-06
177.749268551226,-1.33361816406249E-06
177.829268551024,-1.33666992187501E-06
177.909268550822,-1.3702392578125E-06
177.98926855062,-1.3275146484375E-06
178.069268550418,-1.324462890625E-06
178.149268550216,-1.33361816406249E-06
178.229268550014,-1.33056640625E-06
178.309268549812,-1.33361816406249E-06
178.38926854961,-1.31835937499999E-06
178.469268549408,-1.324462890625E-06
178.549268549206,-1.33666992187501E-06
178.629268549004,-1.33361816406249E-06
178.709268548802,-1.324462890625E-06
178.7892685486,-1.33361816406249E-06
178.869268548399,-1.3397216796875E-06
178.949268548197,-1.3458251953125E-06
179.029268547995,-1.324462890625E-06
179.109268547793,-1.32141113281251E-06
179.189268547591,-1.3275146484375E-06
179.269268547389,-1.3275146484375E-06
179.349268547187,-1.33056640625E-06
179.429268546985,-1.33361816406249E-06
179.509268546783,-1.3427734375E-06
179.589268546581,-1.3275146484375E-06
179.669268546379,-1.33361816406249E-06
179.749268546177,-1.33056640625E-06
179.829268545975,-1.31835937499999E-06
179.909268545773,-1.33666992187501E-06
179.989268545571,-1.3397216796875E-06
180.069268545369,-1.33361816406249E-06
180.149268545167,-1.32141113281251E-06
180.229268544965,-1.33666992187501E-06
180.309268544763,-1.33666992187501E-06
180.389268544561,-1.33056640625E-06
180.469268544359,-1.33056640625E-06
180.549268544157,-1.32141113281251E-06
180.629268543955,-1.3275146484375E-06
180.709268543753,-1.3275146484375E-06
180.789268543551,-1.3458251953125E-06
180.869268543349,-1.3275146484375E-06
180.949268543147,-1.30615234375001E-06
181.029268542945,-1.33361816406249E-06
181.109268542743,-1.32141113281251E-06
181.189268542541,-1.32141113281251E-06
181.269268542339,-1.33666992187501E-06
181.349268542137,-1.3275146484375E-06
181.429268541935,-1.31835937499999E-06
181.509268541733,-1.33666992187501E-06
181.589268541531,-1.3275146484375E-06
181.669268541329,-1.3092041015625E-06
181.749268541127,-1.32141113281251E-06
181.829268540925,-1.324462890625E-06
181.909268540723,-1.3275146484375E-06
181.989268540521,-1.33056640625E-06
182.069268540319,-1.33361816406249E-06
182.149268540117,-1.3275146484375E-06
182.229268539915,-1.324462890625E-06
182.309268539713,-1.33361816406249E-06
182.389268539511,-1.33361816406249E-06
182.469268539309,-1.312255859375E-06
182.549268539107,-1.33666992187501E-06
182.629268538905,-1.3397216796875E-06
182.709268538703,-1.3275146484375E-06
182.789268538501,-1.3153076171875E-06
182.869268538299,-1.33056640625E-06
182.949268538097,-1.32141113281251E-06
183.029268537896,-1.3092041015625E-06
183.109268537694,-1.3397216796875E-06
183.189268537492,-1.31835937499999E-06
183.26926853729,-1.33666992187501E-06
183.349268537088,-1.3275146484375E-06
183.429268536886,-1.3153076171875E-06
183.509268536684,-1.3397216796875E-06
183.589268536482,-1.3092041015625E-06
183.66926853628,-1.32141113281251E-06
183.749268536078,-1.33056640625E-06
183.829268535876,-1.32141113281251E-06
183.909268535674,-1.32141113281251E-06
183.989268535472,-1.324462890625E-06
184.06926853527,-1.33666992187501E-06
184.149268535068,-1.33361816406249E-06
184.229268534866,-1.31835937499999E-06
184.309268534664,-1.324462890625E-06
184.389268534462,-1.33056640625E-06
184.46926853426,-1.3092041015625E-06
184.549268534058,-1.31835937499999E-06
184.629268533856,-1.3275146484375E-06
184.709268533654,-1.32141113281251E-06
184.789268533452,-1.3092041015625E-06
184.86926853325,-1.33056640625E-06
184.949268533048,-1.312255859375E-06
185.029268532846,-1.33056640625E-06
185.109268532644,-1.32141113281251E-06
185.189268532442,-1.3153076171875E-06
185.26926853224,-1.34887695312499E-06
185.349268532038,-1.32141113281251E-06
185.429268531836,-1.31835937499999E-06
185.509268531634,-1.3397216796875E-06
185.589268531432,-1.32141113281251E-06
185.66926853123,-1.32141113281251E-06
185.749268531028,-1.33056640625E-06
185.829268530826,-1.312255859375E-06
185.909268530624,-1.3275146484375E-06
185.989268530422,-1.32141113281251E-06
186.06926853022,-1.3275146484375E-06
186.149268530018,-1.30615234375001E-06
186.229268529816,-1.324462890625E-06
186.309268529614,-1.32141113281251E-06
186.389268529412,-1.3275146484375E-06
186.46926852921,-1.3092041015625E-06
186.549268529008,-1.32141113281251E-06
186.629268528806,-1.32141113281251E-06
186.709268528604,-1.3153076171875E-06
186.789268528402,-1.33361816406249E-06
186.8692685282,-1.33056640625E-06
186.949268527998,-1.3275146484375E-06
187.029268527796,-1.3458251953125E-06
187.109268527595,-1.312255859375E-06
187.189268527393,-1.324462890625E-06
187.269268527191,-1.3153076171875E-06
187.349268526989,-1.32141113281251E-06
187.429268526787,-1.32141113281251E-06
187.509268526585,-1.32141113281251E-06
187.589268526383,-1.3153076171875E-06
187.669268526181,-1.32141113281251E-06
